tree
version=v4
num_class=1
num_tree_per_iteration=1
label_index=0
max_feature_idx=9
objective=binary sigmoid:1
feature_names=Column_0 Column_1 Column_2 Column_3 Column_4 Column_5 Column_6 Column_7 Column_8 Column_9
feature_infos=[-5.0486769676208496:4.9287028312683105] [-5.0737829208374023:11.281846046447754] [-8.2455625534057617:1.6164873838424683] [-3.3646159172058105:9.0523786544799805] [-2.920555591583252:23.584859848022461] [-4.284461498260498:2.3043289184570312] [-1.469332218170166:3.9115076065063477] [-2.0873711109161377:5.8116946220397949] [-3.3058631420135498:22.417596817016602] [-1.929980993270874:17.992525100708008]
tree_sizes=3347 3431 3437 3435 3458 3440 3450 3454 3455 3454 3475 3467 3456 3466 3480 3461 3460 3466 3467 3470 3476 3475 3465 3480 3470 3467 3465 3469 3482 3475 3485 3470 3480 3481 3481 3477 3480 3482 3491 3478 3478 3473 3476 3477 3483 3480 3466 3470 3481 3476 3475 3467 3467 3481 3469 3475 3478 3472 3497 3481 3464 3475 3481 3491 3469 3477 3474 3477 3477 3444 3486 3489 3452 3486 3495 3457 3471 3470 3477 3478 3441 3487 3486 3479 3471 3469 3481 3476 3465 3475 3469 3486 3480 3460 3480 3466 3489 3470 3457 3462 3438 3486 3450 3479 3491 3466 3463 3472 3475 3477 3457 3466 3474 3479 3465 3447 3458 3457 3477 3456 3454 3429 3456 3455 3430 3484 3450 3468 3455 3469 3479 3474 3425 3457 3468 3453 3479 3468 3440 3420 3500 3433 3468 3436 3451 3449 3454 3477 3455 3453 3468 3415 3440 3433 3470 3463 3452 3423 3434 3440 3445 3453 3450 3466 3429 3453 3480 3462 3424 3444 3435 3466 3479 3465 3436 3438 3464 3422 3420 3424 3432 3425 3447 3456 3440 3439 3457 3471 3453 3439 3480 3457 3480 3452 3481 3447 3467 3482 3455 3409 3417 3454 3434 3480 3463 3448 3423 3421 3416 3414 3421 3426 3452 3437 3430 3441 3463 3443 3444 3479 3468 3493 3431 3445 3414 3460 3446 3431 3471 3465 3456 3463 3454 3443 3465 3459 3494 3452 3425 3441 3454 3413 3435 3429 3447 3447 3478 3426 3441 3451 3431 3420 3422 3433 3423 3434 3412 3434 3422 3479 3461 3405 3461 3470 3434 3456 3439 3432 3456 3408 3424 3411 3416 3480 3481 3438 3403 3458 3402 3458 3426 3435 3448 3419 3484 3463 3453 3452 3455 3473 3433 3410 3412 3459 3476 3434 3448 3450 3413 3423 3413 3419 3422 3449 3442 3429 3428 3447 3427 3415 3428 3422 3391 3419 3413 3442 3460 3445 3429 3456 3431 3441 3440 3435 3484 3441 3461 3417 3439 3434 3426 3466 3397 3388 3441 3447 3462 3445 3442 3465 3454 3464 3467 3412 3453 3435 3433 3416 3448 3432 3448 3433 3417 3421 3420 3428 3462 3437 3424 3453 3478 3449 3459 3442 3467 3407 3405 3413 3422 3415 3464 3461 3479 3464 3414 3449 3456 3400 3458 3387 3472 3492 3424 3425 3479 3425 3443 3450 3416 3454 3446 3467 3462 3470 3447 3439 3448 3436 3433 3445 3442 3418 3414 3429 3436 3478 3418 3434 3449 3450 3430 3456 3458 3403 3484 3414 3444 3462 3480 3434 3442 3475 3451 3444 3443 3424 3447 3423 3445 3444 3426 3428 3444 3433 3433 3433 3395 3419 3415 3439 3439 3421 3451 3461 3455 3425 3436 3413 3455 3428 3423 3425 3442 3466 3407 3450 3449 3455 3444 3460 3468 3469 3451 3458 3448 3427 3412 3411 3422 3417 3442 3449 3440 3425 3435 3453 3411 3467 3457 3451 3453 3443 3407 3412 3423 3470 3407 3419 3468 3426 3444 3423 3444 3448 3447 3407 3402 3424 3441 3441 3440 3440 3420 3437 3437 3477 3456 3455 3440 3457 3430 3430 3434 3439 3470 3473 3432 3491 3482 3442 3446 3450 3426 3452 3441 3418 3433 3424 3430 3446 3412 3448 3436 3401 3437 3431 3437 3451 3442 3432 3427 3428 3435 3460 3440 3430 3444 3434 3463 3454 3441 3408 3432 3425 3434 3433 3426 3468 3433 3428 3451 3424 3422 3434 3456 3461 3415 3425 3433 3426 3424 3439 3426 3422 3422 3458 3435 3445 3436 3428 3445 3459 3462 3427 3445 3462 3453 3421 3425 3429 3436 3465 3427 3450 3445 3433 3400 3443 3420 3439 3438 3449 3441 3447 3433 3439 3429 3447 3414 3420 3442 3469 3475 3445 3454 3446 3442 3426 3456 3431 3403 3415 3466 3428 3454 3443 3430 3416 3417 3410 3429 3440 3424 3439 3443 3460 3433 3458 3452 3434 3427 3458 3428 3435 3457 3444 3416 3423 3442 3468 3415 3406 3444 3430 3443 3463 3450 3470 3440 3439 3443 3424 3424 3398 3431 3421 3467 3477 3450 3461 3458 3472 3456 3480 3437 3426 3449 3458 3441 3468 3440 3464 3428 3398 3447 3452 3461 3462 3395 3454 3409 3427 3444 3413 3418 3415 3425 3467 3449 3433 3441 3440 3444 3443 3446 3431 3461 3416 3438 3417 3448 3465 3445 3407 3437 3454 3446 3432 3438 3459 3458 3474 3452 3464 3467 3464 3467 3440 3448 3463 3428 3441 3447 3436 3466 3465 3465 3468 3436 3438 3460 3439 3437 3445 3441 3458 3410 3465 3437 3460 3452 3460 3456 3451 3422 3433 3455 3458 3435 3465 3445 3459 3452 3432 3464 3409 3416 3427 3430 3424 3455 3447 3429 3438 3444 3445 3424 3417 3441 3434 3449 3460 3467 3432 3448 3442 3443 3436 3463 3431 3446 3444 3443 3411 3433 3476 3474 3456 3467 3441 3446 3431 3430 3457 3443 3454 3436 3429 3442 3431 3459 3458 3455 3461 3466 3447 3438 3429 3433 3429 3430 3444 3445 3424 3440 3451 3454 3443 3436 3448 3405 3434 3428 3426 3413 3452 3462 3474 3459 3452 3443 3440 3424 3432 3445 3422 3414 3422 3453 3426 3420 3442 3436 3470 3434 3476 3469 3431 3462 3448 3420 3443 3431 3448 3452 3418 3444 3442 3435 3478 3462 3443 3447 3427 3456 3448 3443 3438 3443 3437 3447 3463 3449 3439 3461 3446 3449 3448 3461 3427 3416 3435 3444 3438 3437 3454 3415 3436 3452 3422 3445 3431 3464 3449 3471 3421 3429 3457 3431 3403 3439 3461 3425 3427 3459 3429 3440 3417 3443 3417 3415 3401 3437 3436 3414 3436 3447 3433 3443 3447 3420 3442 3458 3434 3422 3438 3438 3470 3436 3466 3428 3415 3418 3439 3419 3442 3462 3464 3449 3453 3440 3440 3449 3470 3454 3436 3431 3446 3431 3470 3446 3454 3456 3481 3426 3453 3463 3431 3429 3453 3421 3463 3425 3437 3421 3443 3460 3474 3463 3465 3421 3419 3424 3456 3464 3418 3443 3446 3438 3469 3452 3430 3439 3414 3459 3438

Tree=0
num_leaves=31
num_cat=0
split_feature=8 6 2 4 4 0 7 4 1 8 6 6 5 8 7 8 7 2 4 4 2 8 0 7 8 6 8 2 8 8
split_gain=11662.3 6718.48 3328.83 2334.75 2163.08 1456.32 1604.48 1507.65 1288.9 994.918 790.255 1236.57 673.055 623.376 589.437 510.605 465.658 1409.3 474.024 439.184 474.054 417.868 395.832 312.021 396.388 390.841 326.364 289.559 277.944 270.931
threshold=-1.0300446152687071 -1.2073483467102049 0.41332833468914038 -0.49200859665870661 -2.0388526916503902 0.86522752046585094 0.26773041486740118 -1.0651425719261167 2.6872602701187138 0.55631676316261303 -1.2073483467102049 -0.41476489603519434 -1.6417515873908994 0.45869448781013494 -0.2801190316677093 -0.73717793822288502 0.87930691242218029 0.49400040507316595 0.36072571575641638 -1.128283619880676 0.44754084944725042 0.73935842514038097 0.13851558417081836 -0.7992897331714629 0.043799936771392829 1.6917448639869692 -0.77378636598587025 -1.6605765819549558 0.48309998214244848 -0.82259747385978688
decision_type=2 2 2 2 2 2 2 2 2 2 2 2 2 2 2 2 2 2 2 2 2 2 2 2 2 2 2 2 2 2
left_child=3 2 29 -1 28 7 8 13 15 19 -5 12 -12 14 23 -7 -9 -18 -19 -8 -21 -4 -13 -6 26 -26 -25 -14 -3 -2
right_child=1 4 21 10 5 6 9 16 -10 -11 11 22 27 -15 -16 -17 17 18 -20 20 -22 -23 -24 24 25 -27 -28 -29 -30 -31
leaf_value=-1.194603956972601 -1.2858725167687817 -1.167152032089233 -1.1693903357584001 -1.1911307144315741 -1.4105343683835585 -1.248942807423834 -1.438091238782587 -1.4662707126195904 -1.1652910913989092 -1.4669759247533141 -1.2083967288577231 -1.3642583307369067 -1.4691093674681488 -1.456704745511199 -1.4334264951442572 -1.4474832710186027 -1.4516255553889628 -1.1966492875512718 -1.3856307807783286 -1.3583604324328282 -1.1944982731382128 -1.4212335155483036 -1.2352592670853448 -1.1910790623901426 -1.2045427268540241 -1.4494392906613127 -1.4229811953757217 -1.3841484229722458 -1.410380423820037 -1.4253042618597076
leaf_weight=505.24983537197113 40.363446593284607 78.213993787765503 353.37647795677185 92.191996693611145 59.053135871887207 33.452973246574402 30.468905210494995 6609.082475066185 44.132795691490173 74.130532264709473 43.03340220451355 80.098668336868286 159.88322424888611 185.16927444934845 135.69656753540039 1013.1696263551712 1074.8927178382874 75.229925751686096 59.367248296737671 59.210192084312439 173.39005851745605 17.276183366775513 230.87263226509094 19.789082765579224 134.754230260849 18.532633066177368 65.021271944046021 269.0372918844223 13.820946693420408 254.58812034130096
leaf_count=3217 257 498 2250 587 376 213 194 42081 281 472 274 510 1018 1179 864 6451 6844 479 378 377 1104 110 1470 126 858 118 414 1713 88 1621
internal_value=-1.4169 -1.43467 -1.28088 -1.28018 -1.44495 -1.4472 -1.40051 -1.45511 -1.42998 -1.30518 -1.32959 -1.3459 -1.39691 -1.37993 -1.34708 -1.44114 -1.46105 -1.43253 -1.28 -1.25959 -1.23621 -1.18113 -1.26849 -1.30765 -1.28214 -1.23415 -1.36887 -1.41582 -1.20368 -1.40622
internal_weight=12002.5 10622.2 665.604 1380.37 9956.58 9864.54 1427.96 8436.59 1090.76 337.2 875.117 782.925 471.954 618.016 432.847 1046.62 7818.57 1209.49 134.597 263.069 232.6 370.653 310.971 297.15 238.097 153.287 84.8104 428.921 92.0349 294.952
internal_count=76422 67633 4238 8789 63395 62809 9092 53717 6945 2147 5572 4985 3005 3935 2756 6664 49782 7701 857 1675 1481 2360 1980 1892 1516 976 540 2731 586 1878
is_linear=0
shrinkage=1


Tree=1
num_leaves=31
num_cat=0
split_feature=8 6 9 7 1 3 8 7 7 9 3 6 8 7 1 3 5 0 9 0 6 7 8 9 0 0 0 8 8 1
split_gain=9773.71 5725.62 2249 1793.95 1638.71 1486.56 1347.37 1123.98 816.99 1594.95 770.592 1277.68 588.437 897.877 492.074 423.441 419.406 410.313 409.656 362.763 340.938 279.119 383.436 287.95 259.126 243.668 226.374 261.087 223.665 494.108
threshold=-1.0300446152687071 -1.2073483467102049 -0.78557828068733204 0.33572129905223852 -0.11242690682411192 2.396313071250916 -0.79819187521934498 0.26773041486740118 0.99126872420310985 -0.089671693742275224 -1.0103334784507749 -0.42619317770004267 0.45869448781013494 -0.36463458836078638 0.59974795579910289 0.42142935097217565 0.56772351264953624 0.1430567875504494 0.60954350233078014 1.5684068202972414 -0.79109695553779591 -0.76112246513366688 0.056002749130129821 -1.3328129053115843 0.79087024927139293 0.11835489422082902 0.11835489422082902 -0.8714085817337035 -0.16364733874797818 -1.2725287079811094
decision_type=2 2 2 2 2 2 2 2 2 2 2 2 2 2 2 2 2 2 2 2 2 2 2 2 2 2 2 2 2 2
left_child=4 3 6 19 -1 8 -3 12 26 17 -6 24 13 15 -5 21 -11 -10 -13 -2 25 -8 23 -23 -12 -9 -4 -28 -15 -30
right_child=1 2 5 14 10 -7 7 20 9 16 11 18 -14 28 -16 -17 -18 -19 -20 -21 -22 22 -24 -25 -26 -27 27 -29 29 -31
leaf_value=0.1791124212133004 -0.0081488420434822004 0.18649931060725963 -0.054082605177562006 0.20177902889375662 0.1846014674019324 0.18740082258814761 0.019904646644751889 -0.03706759408535764 0.029471988873116969 -0.030349005087675126 -0.013307981424271193 0.04823067034934176 -0.049550945244286854 -0.047366243448772355 0.062178066678213767 -0.027907888352210065 0.18122253201151681 0.19199522641780223 0.17312054168254079 0.1643862016736819 0.010593052056735804 0.20445495244642045 0.18313713890833727 0.0048213561554221289 0.15836562204810212 0.18074686136332982 0.065863657859646541 -0.037481722331555688 -0.054447440170989604 0.084030177904386438
leaf_weight=651.3765255510807 228.05428002774715 119.00990448892117 4391.7953299582005 382.1290467530489 131.85350365936756 72.280524089932442 75.782623142004013 14.166585102677343 58.695855721831322 1103.3490661233664 391.73630687594414 97.799015954136848 464.20860071480274 330.82201860845089 75.614593625068665 76.306044191122055 23.932026669383049 114.77232058346272 199.80867381393909 35.162882804870605 50.75588284432888 23.956689342856407 139.94868893921375 73.422632068395615 23.287513896822929 137.11567883193493 62.863188445568085 2196.8136084228754 128.88368585705757 128.78575319051743
leaf_count=3675 1430 694 28812 2137 746 421 475 92 369 7135 2490 580 3035 2151 468 491 146 659 1154 203 322 137 809 473 144 798 401 14311 834 830
internal_value=-5.42249e-05 -0.0170758 -0.0270925 0.11891 0.119525 -0.0383273 0.0240389 0.0122794 -0.040379 -0.00413831 0.0735631 0.0530185 -0.00319428 0.018811 0.178718 0.0777079 -0.0258574 0.137003 0.13208 0.0148999 0.122728 0.103447 0.130123 0.053934 -0.00367516 0.16035 -0.0474661 -0.0346067 -0.0201622 0.0147651
internal_weight=12004.5 10508.6 9787.67 720.961 1495.86 8024.5 1763.16 1644.15 7952.22 1300.75 844.485 712.632 1442.12 977.908 457.744 389.417 1127.28 173.468 297.608 263.217 202.038 313.111 237.328 97.3793 415.024 151.282 6651.47 2259.68 588.491 257.669
internal_count=76422 67633 63395 4238 8789 52254 11141 10447 51833 8309 5114 4368 9235 6200 2605 2385 7281 1028 1734 1633 1212 1894 1419 610 2634 890 43524 14712 3815 1664
is_linear=0
shrinkage=0.05


Tree=2
num_leaves=31
num_cat=0
split_feature=8 6 2 4 1 0 7 4 1 7 8 7 8 8 7 7 2 1 0 8 3 1 3 4 2 3 4 0 3 8
split_gain=8359.14 4957.71 2206.93 1489.22 1355.56 1225.34 1259.88 1228.25 889.111 833.301 671.913 441.606 411.111 645.541 419.085 384.736 958.07 379.157 514.284 376.316 367.735 342.561 333.876 282.569 318.662 265.146 261.539 256.401 243.777 195.548
threshold=-1.0178419351577757 -1.1969586014747617 0.37674076855182653 -1.9092434644699094 0.59974795579910289 0.79087024927139293 0.26773041486740118 -0.98734033107757557 2.6872602701187138 1.4177054166793825 0.56851944327354442 3.1345574855804448 0.45869448781013494 0.056002749130129821 -0.77202403545379628 0.92592057585716259 0.49400040507316595 -0.76064226031303395 0.13851558417081836 -0.66396132111549366 0.46696439385414129 -1.3963772654533384 -1.9817912578582761 -1.128283619880676 0.31272237002849584 -0.45234633982181544 0.34308275580406195 -1.2403619289398191 2.396313071250916 -0.82259747385978688
decision_type=2 2 2 2 2 2 2 2 2 2 2 2 2 2 2 2 2 2 2 2 2 2 2 2 2 2 2 2 2 2
left_child=4 2 29 27 17 7 8 12 19 -6 23 -11 13 21 -15 28 -17 -1 -19 -7 25 -5 -4 -8 -25 -16 -18 -3 -9 -2
right_child=1 3 22 5 9 6 10 15 -10 11 -12 -13 -14 14 20 16 26 18 -20 -21 -22 -23 -24 24 -26 -27 -28 -29 -30 -31
leaf_value=0.17213239987739254 0.096650620820487379 -0.051760414966745882 -0.0035681632377225652 0.12031285975307837 0.11086179332517945 0.11029378870187674 -0.021467232501692649 -0.049274229281622034 0.18003785141316769 -0.027198664450527862 -0.050788104435946071 0.15667278711031657 -0.036055736059057368 -0.026287210924373645 0.024491018698523482 -0.033984591590132333 0.16713028036209895 0.028408110781466461 0.13951804618578387 -0.030682779395228888 -0.035287183840869617 -0.035199510521576008 0.1794150000070768 0.0098556040305753274 0.15821290390552634 0.17906695854624594 0.027285687240801611 0.16578418806378892 0.13648431630288024 -0.015738081335139677
leaf_weight=480.80292871594429 45.080636084079742 15.33567129075527 26.359158486127853 42.212692022323608 269.94621975719929 49.552219524979591 31.583123400807381 5948.1625686138868 55.875366792082787 299.13651703298092 69.903392791748047 36.656309440732002 209.46071533858776 54.101142629981041 33.346568539738655 991.05159145593643 78.118083029985428 139.50176447629929 410.90569716691971 1058.7534642964602 29.798212572932243 219.80049473047256 459.4184839874506 42.522809252142906 243.24501737952232 165.07115755975246 58.449671775102615 115.96758550405502 17.714402437210083 273.59358535706997
leaf_count=2465 263 101 155 248 1510 291 197 40201 282 1904 461 194 1408 342 200 6548 413 793 2208 7017 191 1430 2331 261 1302 894 366 613 104 1729
internal_value=-0.000158226 -0.0167867 0.10241 -0.0268483 0.104821 -0.0291845 0.0114183 -0.0372118 -0.0145686 0.0454546 0.0895415 -0.00712662 0.0234699 0.0463757 0.0988315 -0.0436602 -0.016876 0.139694 0.111357 -0.0243797 0.128492 -0.0101451 0.169486 0.120452 0.136137 0.153089 0.107278 0.140376 -0.0487227 0.00016077
internal_weight=11971.4 10334.5 804.452 9530.03 1636.95 9398.72 1551.44 7847.29 1164.18 605.739 387.254 335.793 753.791 544.33 282.317 7093.5 1127.62 1031.21 550.407 1108.31 228.216 262.013 485.778 317.351 285.768 198.418 136.568 131.303 5965.88 318.674
internal_count=76422 67348 4478 62870 9074 62156 9811 52345 7590 3608 2221 2098 4713 3305 1627 47632 7327 5466 3001 7308 1285 1678 2486 1760 1563 1094 779 714 40305 1992
is_linear=0
shrinkage=0.05


Tree=3
num_leaves=31
num_cat=0
split_feature=3 2 0 2 3 1 2 0 3 7 1 0 6 6 7 0 3 0 3 7 0 7 0 3 0 1 0 5 1 0
split_gain=6411.63 2924.8 1707.11 1983.23 1012.73 880.739 865.894 809.317 685.899 594.151 542.323 431.754 424.532 396.985 394.26 336.125 342.854 338.614 305.512 375.242 299.248 255.455 348 451.733 416.951 247.664 199.818 186.616 177.486 175.284
threshold=-0.6945396065711974 0.54711294174194347 0.11835489422082902 0.42203210294246679 2.396313071250916 -0.81090641021728505 -1.8593163490295408 2.2164933681488042 0.25839231908321386 0.249653235077858 0.57131296396255504 -1.2858659029006956 0.1792738735675812 0.53595137596130382 3.1345574855804448 0.13851558417081836 -1.6859334111213682 0.15025661885738376 0.27703304588794714 -0.42139826714992518 -1.8616463541984556 -0.59195423126220692 0.066756881773471846 -1.2862513065338133 0.15025661885738376 -1.0874233245849607 -1.4400558471679685 0.21441200375556949 1.8384674787521365 1.6566128730773928
decision_type=2 2 2 2 2 2 2 2 2 2 2 2 2 2 2 2 2 2 2 2 2 2 2 2 2 2 2 2 2 2
left_child=1 6 5 4 14 8 15 26 11 13 -11 -2 -13 29 25 -1 17 -17 -15 -20 -8 -22 -23 24 -24 -4 -3 -12 -7 -5
right_child=2 7 3 9 -6 28 20 -9 -10 10 27 12 -14 18 -16 16 -18 -19 19 -21 21 22 23 -25 -26 -27 -28 -29 -30 -31
leaf_value=-0.055682964696101692 -0.045047742296583329 -0.025599085010544947 0.065967802140012008 -0.0027533601819291396 0.15898977763028765 -0.049196621847066933 -0.036002381263167231 -0.0014260875962463187 -0.043849818166839492 0.13614493889216625 0.0029115675697192998 -0.0037944032209158915 0.12649799565874778 0.14317394646692153 0.098958532244344435 0.15233139949188909 -0.03467286980857763 -0.030008916646419012 -0.0027839010503325368 0.11963837824117081 0.12545958892990006 -0.01041862569113102 0.16769808391637236 0.029810522014514548 0.036728457206122798 -0.03289217159731829 0.14994560283082842 0.13977118669758004 0.10162851187055609 0.065065171995710283
leaf_weight=337.53898303210735 79.407664239406586 16.493134021759033 64.936375468969345 661.01533482968807 74.700950533151627 4196.8557089418173 84.799587994813919 101.61863006651402 293.06858086585999 292.36746092140675 149.50334756076336 90.337041586637497 203.02642130851746 102.85706214606762 60.158906117081642 70.421092435717583 124.4206467717886 39.880176886916161 171.44708485901356 98.586916625499725 135.67924283444881 176.91502483189106 162.4003144800663 318.32749164104462 97.105623409152031 2596.7483719289303 946.32696941494942 29.887415260076523 19.596602082252502 111.32219219207764
leaf_count=2318 524 109 368 4268 360 29085 557 648 1986 1513 946 561 1107 521 328 370 817 257 1105 574 727 1123 820 1912 573 17325 4628 159 117 716
internal_value=-0.000236381 0.068979 -0.0196844 0.00285148 -0.0226347 -0.0400566 0.0250973 0.132775 0.0133839 0.0469294 0.0941521 0.0583804 0.0863763 0.0274767 -0.0276194 -0.023728 0.0222244 0.086405 0.0698433 0.0419113 0.0537478 0.0622951 0.0509402 0.0697264 0.11869 -0.0304803 0.146939 0.0257131 -0.0484956 0.00702178
internal_weight=11907.8 2611.93 9295.82 4413.53 2796.54 4882.29 1547.49 1064.44 665.84 1616.99 471.758 372.771 293.363 1145.23 2721.84 572.261 234.722 110.301 372.891 270.034 975.227 890.428 754.748 577.833 259.506 2661.68 962.82 179.391 4216.45 772.338
internal_count=76422 14859 61563 28183 18381 33380 9474 5385 4178 9802 2618 2192 1668 7184 18021 3762 1444 627 2200 1679 5712 5155 4428 3305 1393 17693 4737 1105 29202 4984
is_linear=0
shrinkage=0.05


Tree=4
num_leaves=31
num_cat=0
split_feature=8 6 2 2 3 1 3 5 6 3 1 8 0 6 7 3 1 0 6 7 8 3 8 8 3 8 0 8 7 2
split_gain=6809.24 3944.45 2123.26 1106.19 2006.59 1075.08 1001.05 744.254 691.47 643.198 514.779 474.696 374.028 535.449 241.486 239.813 228.031 359.013 222.921 319.567 214.419 198.392 195.468 213.865 181.488 161.927 155.876 155.827 150.398 142.427
threshold=-0.99343630671501149 -1.1613229513168333 0.38168343901634222 0.47652028501033789 0.39859269559383398 0.55385074019432079 2.396313071250916 -0.52012908458709706 -0.019463221542537209 -0.92006397247314442 -0.84752041101455677 -0.73717793822288502 -1.1099330782890318 0.038489330559968955 2.3570634126663212 -1.9817912578582761 -0.65625557303428639 0.13851558417081836 0.47712807357311254 -0.7551966905593871 -0.71277242898941029 -0.076019581407308565 -0.22466126829385755 0.61733070015907299 0.42142935097217565 0.056002749130129821 1.7562571763992312 0.056002749130129821 -0.47088268399238581 -0.34807078540325159
decision_type=2 2 2 2 2 2 2 2 2 2 2 2 2 2 2 2 2 2 2 2 2 2 2 2 2 2 2 2 2 2
left_child=5 2 -2 6 7 16 10 22 9 -7 12 -9 -3 -14 26 -4 -1 -18 -13 -20 29 -11 -5 -24 25 -15 -6 -21 -19 -12
right_child=1 3 15 4 14 8 -8 11 -10 21 20 18 13 24 -16 -17 17 28 19 27 -22 -23 23 -25 -26 -27 -28 -29 -30 -31
leaf_value=0.1390961817721923 -0.010264101534270447 -0.049464768730995798 -0.0048815235012872873 0.04092131598788934 -0.046660335580961554 0.13205930031053428 0.13592666789018937 0.11840063929823517 0.14155893043555226 -0.032620383197788087 -0.042342061113858458 -0.0005382748068162587 -0.023367190339734129 0.034099468199196757 0.13044604437125271 0.14357000271008252 0.021652999649471639 0.036675190451855945 -0.032349682078243638 0.0024745980514341071 -0.050242656791596722 0.036261137833011318 0.15072263920678441 -0.054763349235276031 -0.038330417480884379 0.14027570060686109 0.07035120736274153 0.12934196620779098 0.12835925296101053 0.0047774529494987077
leaf_weight=600.62268190085888 416.12415955960751 242.11858536303043 28.555973157286644 68.779920414090157 1423.2770340144634 97.07455113530159 80.604347795248032 117.14510868489742 133.27929121255875 309.76460944116116 330.15186493098736 766.87422455847263 228.45108051598072 51.641171038150787 20.038545370101929 574.86808457970619 129.27005833387375 51.001389354467392 66.256731823086739 31.164411574602127 4742.9139409512281 157.77912598848343 201.07463072240353 13.513395965099333 24.243012502789497 117.87307910621166 29.042546033859253 108.36540687084198 363.73585483431816 311.8601511567831
leaf_count=2757 2653 1697 158 395 10061 470 371 614 660 2053 2307 4932 1464 309 104 2603 753 263 439 196 33653 930 991 87 166 594 186 588 1781 2187
internal_value=-0.000288409 -0.0165704 0.0766254 -0.0271568 -0.0013935 0.0880344 -0.0391164 0.0420837 0.0391219 0.0149414 -0.0414488 0.0233135 7.80048e-05 0.0284887 -0.0419419 0.136545 0.117857 0.0944076 0.0118614 0.0580695 -0.0465719 -0.00937536 0.114272 0.137782 0.0896298 0.10793 -0.0443204 0.101006 0.117085 -0.0194536
internal_weight=11837.5 9994.94 1019.55 8975.39 2845.53 1842.53 6129.86 1373.17 697.898 564.618 6049.25 1089.81 664.327 422.208 1472.36 603.424 1144.63 544.007 972.661 205.787 5384.93 467.544 283.368 214.588 193.757 169.514 1452.32 139.53 414.737 642.012
internal_count=76422 66755 5414 61341 18593 9667 42748 8242 4113 3453 42377 6769 4230 2533 10351 2761 5554 2797 6155 1223 38147 2983 1473 1078 1069 903 10247 784 2044 4494
is_linear=0
shrinkage=0.05


Tree=5
num_leaves=31
num_cat=0
split_feature=8 6 9 4 7 3 8 9 3 3 8 3 3 7 9 4 7 0 0 6 5 7 0 7 8 7 7 0 0 8
split_gain=5979.93 3436.4 1347.58 1239.76 1128.55 933.871 853.278 619.519 589.805 830.676 563.871 514.803 523.11 487.733 742.228 458.353 376.554 376.24 318.224 311.224 278.279 232.894 211.919 207.837 202.646 470.5 187.367 174.34 167.26 254.984
threshold=-0.93242236971855152 -1.1613229513168333 -0.64839810132980336 -0.30779865384101862 0.36391957104206091 2.396313071250916 0.49530281126499182 -1.297671854496002 0.87183281779289257 -1.0103334784507749 -0.17585015296936032 -0.87332701683044422 0.5130419433116914 1.0581317543983462 0.038297172635793693 0.76243552565574657 -0.76112246513366688 1.7929386496543886 1.5417101383209231 -0.52428895235061634 0.56772351264953624 0.23374644666910174 0.50806215405464183 -0.33362640440464014 0.056002749130129821 0.14875926822423938 0.92592057585716259 0.1430567875504494 1.7220349311828616 0.43428885936737066
decision_type=2 2 2 2 2 2 2 2 2 2 2 2 2 2 2 2 2 2 2 2 2 2 2 2 2 2 2 2 2 2
left_child=3 4 6 -1 18 13 7 -3 9 -5 17 26 16 28 27 -6 -13 21 -2 22 -16 -9 -11 -21 25 -18 -12 -15 -4 -30
right_child=1 2 5 8 15 -7 -8 10 -10 19 11 12 -14 14 20 -17 24 -19 -20 23 -22 -23 -24 -25 -26 -27 -28 -29 29 -31
leaf_value=0.11889991484519664 -0.018839469981812792 0.13055833761848179 -0.048886576697140638 0.12203622853347749 0.12652036605522307 0.11632639732538719 -0.046783473451817797 -0.0402322061775085 0.1215256483716398 -0.019421274458610149 -0.049899360813060387 -0.027419146414776038 -0.035539517262577112 0.019191467800436013 -0.033089407108770348 0.0029481427706671689 -0.020142568990808751 0.18924528752907871 0.11616382514055563 -0.0035206717981723086 0.13800817178894031 0.065915909597325448 0.10898012070758095 0.093856635167013425 0.11458339053839402 0.15711108405647198 0.088794606985626065 0.12902627600271574 0.11464359824864429 -0.046714089399374402
leaf_weight=918.91959151625633 315.00754508376122 126.79988072812557 5170.8819941580296 188.73702962696552 556.79964745044708 95.096359744668007 566.33457589149475 520.46124483644962 196.97615890204906 585.38919189572334 173.30921179056168 72.731451958417892 119.26386539638042 56.059054985642433 823.79429273307323 86.729667887091637 98.919270768761635 20.312581956386566 50.671425521373749 90.047173321247101 24.470683634281158 57.370186448097229 34.00085012614727 139.97194182872772 363.90598003566265 60.234553217887878 28.331905394792557 101.62479391694069 39.775344297289848 63.683729588985443
leaf_count=4147 2000 610 37935 866 2457 429 4079 3606 954 3917 1143 482 849 348 5740 535 656 113 244 498 125 313 180 726 1941 296 139 476 252 418
internal_value=-0.000361222 -0.0172665 -0.0275281 0.0749227 0.0700091 -0.0391871 0.00613664 0.0243931 0.042204 0.0271536 0.0155065 0.040148 0.0600454 -0.0415419 -0.00963626 0.109866 0.0791794 -0.0222582 -0.000132325 0.0060709 -0.0281536 -0.0296933 -0.0123728 0.0557357 0.0940019 0.0469422 -0.0304119 0.0899783 -0.0476271 0.0153207
internal_weight=11746.6 9592.57 8583.36 2154.04 1009.21 6375.39 2207.97 1641.64 1235.12 1038.15 1514.84 916.696 715.055 6280.29 1005.95 643.529 595.791 598.144 365.679 849.409 848.265 577.831 619.39 230.019 523.06 159.154 201.641 157.684 5274.34 103.459
internal_count=76474 65186 59950 11288 5236 45723 14227 10148 7141 6187 9538 5506 4224 45294 6689 2992 3375 4032 2244 5321 5865 3919 4097 1224 2893 952 1282 824 38605 670
is_linear=0
shrinkage=0.05


Tree=6
num_leaves=31
num_cat=0
split_feature=9 0 2 6 6 2 7 4 0 7 7 9 0 4 0 1 4 5 2 4 1 0 9 2 9 7 2 1 9 7
split_gain=4092.06 2457.71 1423.23 1041.34 987.549 935.488 575.776 535.243 417.353 558.304 645.839 458.823 414.16 412.96 352.695 673.772 279.495 212.627 203.273 220.452 182.683 171.055 167.842 165.872 163.787 161.565 158.111 169.729 149.644 137.31
threshold=-0.71499705314636219 0.13851558417081836 0.56321471929550182 1.7533448934555056 -1.2443503737449644 0.42203210294246679 1.0581317543983462 3.7034351825714116 -1.7980673313140867 -0.41043254733085627 0.26773041486740118 -1.0236857533454893 2.2164933681488042 0.94875365495681774 0.1430567875504494 0.57131296396255504 -1.5952619910240171 -1.4948287606239317 0.66587847471237194 -0.64439934492111195 1.9900872111320498 -0.033993037417531007 0.83275380730628978 -1.1431062817573545 -0.41008131206035608 2.2065552473068242 0.69722765684127819 -0.64109706878662098 -1.2169476151466367 -0.65844401717185963
decision_type=2 2 2 2 2 2 2 2 2 2 2 2 2 2 2 2 2 2 2 2 2 2 2 2 2 2 2 2 2 2
left_child=2 26 8 12 -3 7 20 14 -1 11 17 -10 18 -8 15 25 -5 -11 19 -4 24 -12 23 -17 -7 -6 -2 -28 -14 -13
right_child=1 4 3 16 5 6 13 -9 9 10 21 29 28 -15 -16 22 -18 -19 -20 -21 -22 -23 -24 -25 -26 -27 27 -29 -30 -31
leaf_value=-0.044935011419436482 -0.048772260785336009 0.11073451118157546 0.038090130713575622 0.11966278939747671 0.039323599516877777 0.049426972165581951 0.11259512985004627 0.11541384947763578 0.11161345336236649 0.054051602774747881 -0.025506358710742541 -0.025576416777802383 0.12462745413546739 -0.010665920455889469 -0.038419785893684694 0.1257116096695283 -0.050156957140261263 -0.028828877420168667 0.11632255788993047 0.12318672250248784 0.11363683820543798 0.09182552372143353 -0.029302302751719418 -0.0015603603064282597 -0.002324331320700963 0.11799345229170355 0.13693009653065411 -0.01767437315231031 -0.022389287194313323 0.050862045722151077
leaf_weight=246.07811658084393 3933.7008539736271 219.98008391261101 200.70429642498493 28.236471474170685 243.30873730778694 197.73312854766846 316.64807356894016 76.283441916108131 275.36722682416439 87.491346716880798 36.529709503054619 105.96317690610886 21.280912309885025 86.517171517014503 1226.7110172957182 34.098714932799339 170.72289279103279 669.88024069368839 939.70591332018375 122.59740573167801 44.173606812953949 207.57268550992012 895.07539319992065 102.71995024383068 674.14148829877377 89.186011925339699 20.578875124454498 129.24051159620285 92.731641188263893 131.86400377750397
leaf_count=1785 29654 1005 1153 123 1371 1200 1496 333 1328 494 239 701 105 532 8868 173 1259 4489 4155 566 218 1014 6215 703 4405 439 129 941 600 781
internal_value=-0.000402026 -0.0192208 0.0463532 0.0808692 0.00760231 0.00191148 0.0363523 -0.015122 0.0154592 0.0252711 0.00354066 0.0676769 0.0963183 0.0861439 -0.018965 -0.00147341 -0.026056 -0.0192545 0.104557 0.0703591 0.0144383 0.0742669 -0.0214183 0.0301591 0.00941239 0.0604254 -0.0468522 0.00356177 0.00505199 0.0168051
internal_weight=11626.8 8290.1 3336.73 1575.98 4206.58 3986.6 1319.21 2667.38 1760.75 1514.67 1001.47 513.194 1377.02 403.165 2591.1 1364.39 198.959 757.372 1263.01 323.302 916.048 244.102 1031.89 136.819 871.875 332.495 4083.52 149.819 114.013 237.827
internal_count=76474 57682 18792 7961 26958 25953 7851 18102 10831 9046 6236 2810 6579 2028 17769 8901 1382 4983 5874 1719 5823 1253 7091 876 5605 1810 30724 1070 705 1482
is_linear=0
shrinkage=0.05


Tree=7
num_leaves=31
num_cat=0
split_feature=8 6 2 9 1 3 8 5 3 9 8 1 7 2 3 7 2 2 7 2 3 6 9 2 3 8 8 2 1 5
split_gain=5042.81 2840.02 1484.26 1163.09 958.518 790.664 725.563 514.495 719.821 448.648 482.361 458.13 437.636 845.732 416.659 303.148 356.415 261.344 245.329 240.83 181.164 148.372 136.677 135.457 225.255 131.585 124.702 122.628 140.949 142.382
threshold=-0.92021968960762013 -1.1613229513168333 0.4042388796806336 -0.64839810132980336 -0.071619108319282518 2.396313071250916 0.49530281126499182 0.21441200375556949 -1.0103334784507749 -1.3328129053115843 -0.17585015296936032 -1.6780666708946226 1.0581317543983462 0.49400040507316595 0.52523016929626476 -0.71418967843055714 0.010135182645171882 0.77026230096817028 0.23374644666910174 -1.541032552719116 -1.9817912578582761 0.73476999998092662 0.44066907465457922 0.52438715100288402 -0.42171521484851832 0.26345002651214605 -0.84700295329093922 0.60062631964683544 -0.65625557303428639 0.31611612439155584
decision_type=2 2 2 2 2 2 2 2 2 2 2 2 2 2 2 2 2 2 2 2 2 2 2 2 2 2 2 2 2 2
left_child=4 2 -2 6 -1 12 9 8 -6 -3 17 21 27 -14 15 -13 -17 18 26 -10 -4 -12 -9 24 -18 -7 -11 -5 -29 -30
right_child=1 3 20 5 7 25 -8 22 19 10 11 14 13 -15 -16 16 23 -19 -20 -21 -22 -23 -24 -25 -26 -27 -28 28 29 -31
leaf_value=0.10243662566825923 -0.014242154945469987 0.11598617333317883 -0.016646605682126697 -0.049850629471637008 0.10701434361608866 0.12207845813202518 -0.045635998177001334 0.033409892331239609 -0.045665750209554629 0.09951765423591491 -0.054577256062924739 -0.023311831875483753 -0.033413303968102798 0.081833404199044807 -0.035434289096446428 -0.018175284468321902 -0.0078223537836552334 0.13461878732899046 0.062905818651346826 0.015862983648524676 0.11465709121839879 0.085375968958553289 0.1141819671171618 0.12090680097833267 0.10017332758067626 -0.061830400422003301 -0.044960130978871166 0.053738569638157742 0.01341350624718215 -0.043449245379426696
leaf_weight=1018.8275717794895 398.08410480618477 115.77953597903252 27.460417702794075 4117.9878070726991 187.64447988569736 88.522509172558784 541.28662011027336 68.472864046692848 225.45696814358234 15.410473853349684 152.37860797345638 79.801972709596157 769.88745331764221 200.68581059575081 114.31277194619179 78.714988626539707 68.234649464488029 25.62766407430172 64.790410578250885 539.82136788964272 605.91006490588188 21.625170230865479 222.75681319832802 263.48831160366535 165.13815885782242 10.926717281341551 484.27775990217924 48.616497814655304 132.11335299909115 660.33309741318226
leaf_count=4412 2551 511 148 32320 818 376 4079 373 1610 91 1001 535 5590 980 836 520 422 133 332 3385 2501 104 1009 1260 867 53 3494 315 889 4959
internal_value=-0.00042667 -0.0167919 0.0614135 -0.0266053 0.0664769 -0.037943 0.00459509 0.0370297 0.0192546 0.0210777 0.0139135 0.0360863 -0.0402879 -0.0095837 0.0526505 0.0680145 0.0806766 -0.0215451 -0.0286351 -0.00226386 0.108964 -0.0371839 0.0951911 0.0963372 0.068597 0.101872 -0.0405044 -0.0462973 -0.0288995 -0.0339693
internal_weight=11514.4 9251.39 1031.45 8219.94 2262.98 6029.07 2190.87 1244.15 952.923 1649.58 1533.8 943.695 5929.62 970.573 769.691 655.378 575.576 590.106 564.479 765.278 633.37 174.004 291.23 496.861 233.373 99.4492 499.688 4959.05 841.063 792.446
internal_count=76474 64867 5200 59667 11607 45482 14185 7195 5813 10106 9595 5545 45053 6570 4440 3604 3069 4050 3917 4995 2649 1105 1382 2549 1289 429 3585 38483 6163 5848
is_linear=0
shrinkage=0.05


Tree=8
num_leaves=31
num_cat=0
split_feature=8 0 7 4 1 2 9 5 7 2 0 1 8 7 8 4 8 9 0 1 2 2 8 4 7 8 8 5 8 9
split_gain=4515.63 2590.45 1744.32 1003.22 830.756 600.855 512.776 435.012 425.793 787.145 456.872 388.7 368.978 329.783 278.628 201.477 200.724 196.952 402.786 158.224 146.813 145.524 293.011 287.636 329.943 506.785 161.334 138.964 123.829 242.86
threshold=-0.92021968960762013 0.79087024927139293 0.28771054744720465 -0.96952408552169789 0.55385074019432079 -0.24720881134271619 0.13542150706052783 -1.4948287606239317 -0.39262482523918146 0.48538115620613104 -0.14832686632871625 2.6872602701187138 0.49530281126499182 -0.2801190316677093 -0.66396132111549366 -1.1974573135375974 -1.3107086420059202 -0.91025078296661366 0.13851558417081836 0.55385074019432079 0.6097998619079591 0.32056003808975225 0.7881695330142976 -1.0853043198585508 -0.38638818264007563 -0.24906676262617108 -0.45651406049728388 1.210916340351105 0.043799936771392829 -1.1796721220016477
decision_type=2 2 2 2 2 2 2 2 2 2 2 2 2 2 2 2 2 2 2 2 2 2 2 2 2 2 2 2 2 2
left_child=4 3 11 12 17 7 15 -6 -5 -10 -11 14 13 27 -3 -4 -9 -1 -19 -12 -15 -16 23 26 -25 -26 -23 28 29 -2
right_child=1 2 6 8 5 -7 -8 16 9 10 19 -13 -14 20 21 -17 -18 18 -20 -21 -22 22 -24 24 25 -27 -28 -29 -30 -31
leaf_value=0.10812489098664915 0.1126125886218573 0.091122673293387746 -0.029876537365885789 -0.049486603007968873 0.09447469112419285 0.070557633887161478 -0.02801226897731908 0.050626585004420403 -0.036247303424307327 -0.032498844751819932 0.094765634543440683 0.10716187353444973 -0.03628315728691664 -0.035718000549558093 -0.045163977167966329 0.10181228658294023 -0.046902156600504348 0.0067026031053273472 0.089715231097890299 0.012564495541491222 0.090885517034453842 0.13818261596131409 -0.052356744919672141 -0.030667705585859063 -0.027412298667575299 0.13671018388658571 -0.045094298980792868 -0.014660576298631973 0.086676205302000542 -0.019014702043048053
leaf_weight=591.0381303280592 56.151294142007828 60.00443260371685 30.159408167004585 3614.2272311747074 80.471286721527576 395.04865738749504 91.284060381352901 61.921349987387657 1926.3901726230979 156.38980340212584 220.19844617694616 70.41310778260231 240.0229390412569 171.58181574195623 368.45408012717962 785.86911502480507 356.42844461649656 191.0742162540555 621.1679262816906 79.739775843918324 26.425403088331223 12.867698535323141 237.83421591669321 97.806667059659958 71.472846060991287 137.56795696914196 179.60239054262638 58.651751965284348 284.76858806610107 93.221121363341808
leaf_count=2444 248 298 187 29364 361 2091 610 348 14652 1201 1139 285 1739 1174 2783 3359 2562 1072 2729 482 125 63 1696 698 482 740 1188 395 1354 605
internal_value=-0.000452888 -0.0163108 0.0317265 -0.0311728 0.0621678 0.0244933 0.0843733 -0.0119881 -0.038669 -0.0222602 0.0367864 -0.00691934 0.0171224 0.0356785 -0.0138108 0.0969452 -0.0324666 0.0861659 0.0701871 0.0729121 -0.0188219 -0.0195059 -0.00668109 0.0150751 0.0451306 0.0805953 -0.0328412 0.0575771 0.0673363 0.0304659
internal_weight=11368.3 9071.1 2143.34 6927.77 2297.15 893.87 907.313 498.821 5996.95 2382.72 456.328 1236.02 930.823 690.8 1165.61 816.029 418.35 1403.28 812.242 299.938 198.007 1105.61 737.152 499.318 306.847 209.041 192.47 492.793 434.141 149.372
internal_count=76474 64867 12389 52478 11607 5362 4156 3271 46838 17474 2822 8233 5640 3901 7948 3546 2910 6245 3801 1621 1299 7650 4867 3171 1920 1222 1251 2602 2207 853
is_linear=0
shrinkage=0.05


Tree=9
num_leaves=31
num_cat=0
split_feature=8 6 2 4 2 3 3 4 3 3 5 6 2 8 6 7 8 0 8 7 8 8 3 4 7 3 0 4 4 5
split_gain=4070.85 2411.73 1517.11 879.053 687.895 1100.51 677.3 573.424 504.672 651.49 384.868 340.38 312.216 457.77 168.054 238.119 181.639 161.017 202.443 333.949 142.062 147.016 136.814 121.992 106.832 88.1126 87.0338 83.1015 97.1404 187.142
threshold=-0.8714085817337035 -1.1258071064949033 0.4176261574029923 -0.48309053480625147 0.45995856821537023 0.39859269559383398 2.396313071250916 -1.1738630533218382 -1.2452293634414671 0.7364134192466737 -0.49177348613739008 -0.094924792647361741 -0.34807078540325159 -1.2618975043296812 0.47712807357311254 -0.74966296553611744 -0.59074455499649037 0.057359743863344199 0.62953338027000438 -0.39262482523918146 -0.23686407506465909 0.61733070015907299 -1.9817912578582761 -1.1067375540733335 -0.69330015778541554 1.312205493450165 0.30437947809696203 -1.2218565940856931 0.64589381217956554 -0.08960798010230063
decision_type=2 2 2 2 2 2 2 2 2 2 2 2 2 2 2 2 2 2 2 2 2 2 2 2 2 2 2 2 2 2
left_child=3 2 -2 -1 6 10 7 11 -5 12 20 -3 13 -10 16 -16 -12 -7 19 25 -6 23 -4 -22 -14 -19 -15 -18 29 -29
right_child=1 4 22 8 5 17 -8 -9 9 -11 14 -13 24 26 15 -17 27 18 -20 -21 21 -23 -24 -25 -26 -27 -28 28 -30 -31
leaf_value=0.093520149316021678 -0.018402765677848494 -0.031010663344135145 -0.013872783650309041 0.1030566035116955 0.011278889852398041 -0.051336535101650871 0.097974404463433556 -0.045218241142133846 0.069302148341652034 0.090834354903828296 0.069911557953945741 0.080545347899434905 -0.024979802613044833 -0.050100145594595892 -0.025807418791575682 0.080108333805026605 -0.035645310910312561 -0.036291123440786964 -0.054206949791442471 0.10021194069010482 -0.032059900184973185 -0.054738921344068936 0.10131328807678758 0.11477428472145623 0.039262072274237093 0.085636729669289313 0.15017034585288974 0.069226384724373508 -0.035738661964100332 -0.0061662653906970101
leaf_weight=954.72885144501925 482.05140515416861 126.79978373646736 26.807338789105415 217.51398079097271 68.010975703597069 900.20357494056225 89.456452652812004 4462.310613900423 104.9140190333128 265.99004246294498 83.378370217978954 148.41038405895233 75.33900685608387 413.90095322579145 77.339920789003372 169.07085933536291 198.31923837214708 152.22555654495955 181.64174970239401 78.886465184390545 15.228189930319784 15.581551931798456 672.21903396397829 198.94320446252823 458.91217736154795 16.4152502566576 5.4969784319400778 111.62607915699482 130.12521664053202 313.40943721681833
leaf_count=3955 3276 875 146 906 394 7561 372 36576 547 1208 460 728 415 3098 531 861 1307 1149 1366 465 94 108 2736 860 2647 121 30 623 880 2179
internal_value=-0.000475396 -0.0165959 0.0498373 0.0558153 -0.0270058 -0.00684804 -0.0383246 -0.0408982 0.0324713 0.02088 0.0244107 0.0291473 0.00330225 -0.0241083 0.0105721 0.046865 -0.00011428 -0.0393215 -0.0141193 0.015298 0.0747556 0.0935458 0.096896 0.104334 0.0302028 -0.0244228 -0.0474752 -0.00786318 0.00206139 0.0136339
internal_weight=11215.3 8718.46 1181.08 2496.8 7537.38 2710.41 4826.98 4737.52 1542.07 1324.55 1381.03 275.21 1058.56 524.312 1083.27 246.411 836.858 1329.37 429.169 247.527 297.764 229.753 699.026 214.171 534.251 168.641 419.398 753.48 555.161 425.036
internal_count=76474 63668 6158 12806 57510 18959 38551 38179 8851 7945 8297 1603 6737 3675 6841 1392 5449 10662 3101 1735 1456 1062 2882 954 3062 1270 3128 4989 3682 2802
is_linear=0
shrinkage=0.05


Tree=10
num_leaves=31
num_cat=0
split_feature=8 0 7 1 9 8 8 0 3 6 9 3 3 1 9 0 9 0 7 5 7 9 3 1 3 8 8 7 8 7
split_gain=3674.02 2288.09 1444.22 790.221 745.878 516.339 698.914 539.589 488.643 593.405 403.951 358.632 333.448 326.425 283.113 264.602 182.778 162.032 140.64 183.935 139.732 135.003 174.807 131.163 107.194 105.863 102.498 100.539 108.943 166.475
threshold=-0.8714085817337035 0.79087024927139293 0.28771054744720465 -0.45642860233783716 -0.59950241446495045 0.53191110491752636 0.068205563351511969 -0.48998196423053736 -1.2452293634414671 -0.42619317770004267 0.080125488340854659 0.55733808875083934 2.0057473182678227 -1.3963772654533384 0.44066907465457922 0.11835489422082902 -1.2169476151466367 1.0959335565567019 -0.39262482523918146 0.94205164909362804 2.9297223091125493 1.0221778750419619 -0.6945396065711974 -1.3963772654533384 -2.1137731075286861 -0.43210856616497034 0.61733070015907299 -0.88875219225883473 0.84918347001075756 -0.12591802328824994
decision_type=2 2 2 2 2 2 2 2 2 2 2 2 2 2 2 2 2 2 2 2 2 2 2 2 2 2 2 2 2 2
left_child=3 4 12 -1 5 6 13 -8 -5 17 23 24 16 -2 -11 20 26 -10 -17 21 -6 22 -20 -4 -9 -25 -3 -18 29 -29
right_child=1 2 10 8 15 -7 7 11 9 14 -12 -13 -14 -15 -16 18 27 -19 19 -21 -22 -23 -24 25 -26 -27 -28 28 -30 -31
leaf_value=0.090238382295675656 0.076805497631311323 0.070101231116704577 -0.0029274334201771675 0.097643952171186987 -0.050943649155088803 -0.044855137137505469 -0.012775216011164423 -0.033541555110635363 -0.0098444946110687048 0.012625597474230386 -0.024852897517695094 -0.035267177797554873 0.090326953636365725 -0.038113784727935945 0.088408134108230674 -0.04396190510599475 0.2049303331375455 0.10501836734388968 0.056706793774520606 0.097013196369689678 0.25273856416921636 -0.038534622227988813 -0.015389335905172963 -0.013696123664989469 0.10320071747881121 0.094204243024752485 -0.055374971988568902 -0.028182344972582585 -0.054207029841977332 0.023438736353567025
leaf_weight=894.27707972377539 69.525975123047829 88.350698716938496 38.958713456988335 239.99332973361015 2988.0657621771097 550.60949458926916 238.66167582571507 14.908314436674116 821.09704271703959 191.09423776715994 89.969498656690121 58.173790626227856 81.114382334053516 555.54501070827246 347.09748101234436 620.4100176692009 4.882399156689643 31.895643800497055 106.01314757019281 36.243188768625259 3.7926956340670577 427.18624497205019 406.31511189043522 23.420549318194389 370.69671067595482 773.22855420410633 19.950663290917873 562.72536660730839 213.00857999920845 216.18428143113852
leaf_count=3651 329 426 235 986 26065 4471 1615 110 5597 989 622 451 345 4222 1513 5176 33 144 604 204 24 3299 3079 122 1786 3218 120 4212 1645 1371
internal_value=-0.000528356 -0.0161667 0.029003 0.0524647 -0.0309645 -0.00423873 0.0128653 0.0478511 0.0317557 0.0203893 0.0758128 0.0804556 -0.00752165 -0.0253314 0.0615002 -0.0417882 -0.0147037 -0.00554947 -0.0253489 -0.0135143 -0.0505587 -0.017778 -0.000470897 0.0866514 0.097914 0.0910321 0.0469867 -0.0214063 -0.0225204 -0.0138551
internal_weight=11083.4 8557.94 2111.79 2525.45 6446.15 1858.12 1307.51 682.44 1631.18 1391.18 925.577 443.779 1186.22 625.071 538.192 4588.03 1105.1 852.993 1596.17 975.758 2991.86 939.515 512.328 835.608 385.605 796.649 108.301 996.801 991.918 778.91
internal_count=76664 63784 12349 12880 51435 12984 8513 3962 9229 8243 4197 2347 8152 4551 2502 38451 7807 5741 12362 7186 26089 6982 3683 3575 1896 3340 546 7261 7228 5583
is_linear=0
shrinkage=0.05


Tree=11
num_leaves=31
num_cat=0
split_feature=8 0 7 1 9 8 8 0 3 6 8 3 3 1 0 9 9 0 7 5 9 3 7 1 1 5 0 1 8 8
split_gain=3324.95 2111.87 1298.23 707.895 707.316 481.645 645.068 477.754 436.105 545.011 375.682 345.285 301.254 298.631 262.49 247.302 165.491 149.47 134.328 163.504 128.855 149.15 121.038 103.463 107.034 95.7715 94.1944 173.885 227.026 221.745
threshold=-0.8714085817337035 0.79087024927139293 0.28771054744720465 -0.45642860233783716 -0.5916001796722411 0.53191110491752636 0.056002749130129821 -0.56270200014114369 -1.1160324811935423 -0.42619317770004267 0.61733070015907299 0.55733808875083934 2.0057473182678227 -1.3963772654533384 0.11835489422082902 0.44066907465457922 -1.2169476151466367 1.0642122030258181 -0.39262482523918146 0.87322002649307262 1.0221778750419619 -0.6945396065711974 2.7763937711715703 -1.3963772654533384 0.57131296396255504 -2.2535049915313716 1.7220349311828616 -1.1125574707984922 0.64173617959022533 -0.13924184441566465
decision_type=2 2 2 2 2 2 2 2 2 2 2 2 2 2 2 2 2 2 2 2 2 2 2 2 2 2 2 2 2 2
left_child=3 4 12 -1 5 6 13 -8 -5 17 23 25 16 -2 22 -11 -3 -10 -16 20 21 -20 -6 -4 -25 -9 -18 29 -29 -28
right_child=1 2 10 8 14 -7 7 11 9 15 -12 -13 -14 -15 18 -17 26 -19 19 -21 -22 -23 -24 24 -26 -27 27 28 -30 -31
leaf_value=0.085281177965297245 0.071959523701051839 0.044170801497096561 4.3572754224674796e-05 0.089192574896071311 -0.050556764389952741 -0.044108813883396304 -0.017851482525047067 -0.054273924117954279 -0.011036681477991391 0.011928430271438507 -0.032174820426820995 -0.036919461217387428 0.085583471051200538 -0.037870606964804543 -0.043177904442417689 0.082401784907102454 -0.029238784213273219 0.098441034285526904 0.052033249905960227 0.081872495887862898 -0.038103753442428452 -0.014609679651723988 0.18104314241365099 0.090043950354093807 0.014086613076021333 0.091921648277343518 0.15789103998563137 0.10715425393356391 -0.04195486663283135 -0.058397537416534889
leaf_weight=898.81110180914402 69.795820370316505 109.35978678613901 37.116695910692215 261.84501501917839 2856.9477590322495 540.76141145825386 213.26217599958181 11.512787848711012 796.66149654239416 192.12251256406307 79.237259320914745 63.575779438018799 81.322869703173637 546.51955033838749 598.92924942076206 353.59855811297894 751.72557017207146 32.447355508804321 106.64373905956745 43.361341014504433 414.84220030903816 394.6469935849309 5.6525321602821341 760.80645821988583 49.389741964638233 415.4023163318634 13.333284035325049 69.89099159091711 40.216370321810246 106.53730611503124
leaf_count=3651 323 546 223 1075 25886 4535 1481 94 5509 989 532 507 345 4278 5160 1513 5732 143 594 240 3294 3024 33 3169 273 1986 68 373 290 798
internal_value=-0.000538933 -0.0157169 0.0277047 0.0496303 -0.0302252 -0.00436445 0.0119167 0.0446256 0.0300519 0.0187882 0.0719377 0.0717902 -0.00725325 -0.0254327 -0.0411101 0.0575915 -0.0141729 -0.00675225 -0.024598 -0.0130002 -0.0174906 -0.000432176 -0.0500994 0.0816739 0.0854136 0.0879791 -0.0206722 0.00732911 0.0526926 -0.0343396
internal_weight=10916.3 8380.79 2098.94 2535.49 6281.85 1860.83 1320.07 703.753 1636.67 1374.83 926.55 490.491 1172.39 616.315 4421.02 545.721 1091.06 829.109 1558.42 959.494 916.133 501.291 2862.6 847.313 810.196 426.915 981.704 229.978 110.107 119.871
internal_count=76664 63784 12349 12880 51435 13204 8669 4068 9229 8154 4197 2587 8152 4601 38231 2502 7807 5652 12312 7152 6912 3618 25919 3665 3442 2080 7261 1529 663 866
is_linear=0
shrinkage=0.05


Tree=12
num_leaves=31
num_cat=0
split_feature=3 0 2 2 4 3 2 0 3 7 4 0 7 4 3 1 3 4 2 0 7 5 4 0 5 7 6 0 7 4
split_gain=2765.16 1049.74 1042.76 988.738 580.632 477.628 416.704 258.039 234.024 225.54 410.684 208.089 194.383 229.679 193.91 282.137 191.357 167.155 145.175 144.334 139.886 139.237 133.022 128.518 114.833 110.669 105.364 82.8985 150.591 85.1528
threshold=-0.66188225150108326 -0.057006439194083207 0.57999321818351757 0.43939875066280371 -1.0081523060798643 2.0057473182678227 -1.8593163490295408 2.2164933681488042 0.28611113131046301 2.3052271604537968 0.64589381217956554 0.13851558417081836 0.249653235077858 0.94875365495681774 1.4550052881240847 -0.5288403034210204 -1.5151954889297483 -1.2449270486831663 0.87343236804008495 -1.8616463541984556 -0.81373536586761464 -0.78657740354537953 -1.9092434644699094 0.15025661885738376 0.30580508708953863 -0.31773425638675684 -1.369760990142822 1.1305559873580935 -0.063316095620393739 0.47255060076713568
decision_type=2 2 2 2 2 2 2 2 2 2 2 2 2 2 2 2 2 2 2 2 2 2 2 2 2 2 2 2 2 2
left_child=2 4 6 5 8 9 11 -4 20 17 -11 -1 14 -14 15 18 23 -3 -5 -8 -2 26 -23 -13 27 -22 -21 -17 -29 -30
right_child=1 3 7 12 -6 -7 19 -9 -10 10 -12 16 13 -15 -16 24 -18 -19 -20 21 25 22 -24 -25 -26 -27 -28 28 29 -31
leaf_value=-0.052090348700345429 -0.022103709252059671 0.04748142303678133 0.084471771507617144 0.024533064631486128 -0.044063494710646335 0.083439080315339587 -0.033803142900284321 -0.00062659861548421299 -0.04032923756621478 0.089086962201926245 -0.027519887272033045 0.088144916734726991 0.072006725080147771 -0.011523039461752704 0.085092715538121561 -0.0083537887041889702 -0.035822324347442036 -0.030838182389933425 0.085037378187363344 0.0040926548768379463 0.083669379135075897 0.081873306022841222 -0.00037026171044856498 -0.019690712296227268 -0.021237355486385057 -0.03673985254623157 0.058460205756539901 0.12066260560946024 0.081431985678970545 -0.039683164027198896
leaf_weight=266.71971642971039 51.993436202406883 70.240622006356716 1089.2162421494722 333.75911577790976 3004.8938981890678 109.60974658280611 76.191220968961716 97.01489969342947 99.172450333833694 120.69400394707918 201.69432409107685 87.127298653125763 405.22755617648363 103.26821400225163 100.61395692825317 110.24931067228317 111.0161607414484 2263.6525347232819 141.03765352070332 104.58648157119751 171.72240746766329 58.354562029242516 312.22006258368492 40.460888981819153 477.58586938679218 21.468780599534512 602.44648563861847 47.113383308053017 22.346726350486279 41.396162189543247
leaf_count=2384 327 353 4588 1989 27140 503 592 654 786 563 1449 396 1848 634 512 745 871 18372 616 615 788 248 1946 283 3598 134 3055 256 121 298
internal_value=-0.000546957 -0.0157728 0.0417149 -0.000130587 -0.037016 -0.0188454 0.0161209 0.0775121 0.0244814 -0.0230661 0.0161348 -0.021743 0.0289075 0.055043 0.0184768 0.0127652 0.0121803 -0.0284811 0.0425058 0.0327039 0.0506961 0.0374063 0.0125807 0.053948 -0.0074451 0.0702886 0.050418 0.022346 0.0528778 0.0027769
internal_weight=10743.1 7897.74 2845.35 4548.49 3349.25 2765.89 1659.12 1186.23 344.357 2656.28 322.388 505.324 1782.6 508.496 1274.1 1173.49 238.604 2333.89 474.797 1153.8 245.185 1077.61 370.575 127.588 698.691 193.191 707.033 221.106 110.856 63.7429
internal_count=76664 61032 15632 31857 29175 21240 10390 5242 2035 20737 2012 3934 10617 2482 8135 7623 1550 18725 2605 6456 1249 5864 2194 679 5018 922 3670 1420 675 419
is_linear=0
shrinkage=0.05


Tree=13
num_leaves=31
num_cat=0
split_feature=8 9 7 4 3 8 8 9 7 9 3 3 0 3 3 7 5 8 7 6 6 5 9 0 8 0 8 4 0 0
split_gain=2903.3 1802.17 1489.7 578.626 508.476 417.085 561.596 423.978 403.209 394.362 340.887 439.102 275.303 255.89 299.471 353.9 222.738 213.333 187.371 173.431 166.342 164.102 158.433 148.695 139.597 125.566 124.573 130.304 122.616 110.74
threshold=-0.8714085817337035 -0.55431127548217762 0.26773041486740118 -0.4453959167003631 2.0057473182678227 0.49530281126499182 0.043799936771392829 -1.3725382685661314 0.79800170660018932 -0.064341358840465532 1.2039937376976015 -0.98784360289573658 -0.1921121999621391 0.57870459556579601 -0.25271412730216974 -0.70874872803688038 -0.67229518294334401 0.007191632525064052 -0.40491068363189692 -0.95731440186500538 -0.66891062259674061 0.47963161766529089 -1.2169476151466367 1.7562571763992312 -1.2618975043296812 0.13851558417081836 0.48309998214244848 1.0652049183845522 0.14305672794580462 0.13851558417081836
decision_type=2 2 2 2 2 2 2 2 2 2 2 2 2 2 2 2 2 2 2 2 2 2 2 2 2 2 2 2 2 2
left_child=3 2 5 -1 8 6 7 -2 25 -10 11 -5 -4 14 19 -16 18 -6 -13 28 -14 26 -21 -9 -20 -3 27 -11 -8 -18
right_child=1 4 12 10 17 -7 13 23 9 21 -12 16 20 -15 15 -17 29 -19 24 22 -22 -23 -24 -25 -26 -27 -28 -29 -30 -31
leaf_value=0.076180808730505548 0.087810179703697866 -0.051190790954468074 -0.04653198801459453 0.078011426549089755 0.10014414186423311 -0.043695275367764158 -0.0044568035350802592 -0.035429976461017074 0.056200733576459029 0.01452387228244513 0.095617810129516922 0.14079269133852321 0.079913789513184952 -0.041313163626250093 -0.027474665061594024 0.10424470218259346 -0.015306665931068848 -0.053679522411302673 0.042690606450386741 0.075549241888750507 -0.010569977857062079 0.084233423201931557 -0.031460742596261415 0.072730228408832129 -0.040024278600890716 -0.032283467902894006 -0.055059645097932576 -0.039634465650429801 0.1114939482260074 0.034186610519202437
leaf_weight=986.32958289980888 81.916164353489876 2406.9233238771558 49.868947215378284 256.20709533989429 97.330848634243011 594.41092658042908 36.135320834815502 823.48923090100288 191.7003116607666 222.1384774595499 162.28357627987862 16.985808327794075 814.58834835886955 91.618886552751064 62.310895808041096 280.78191372007132 143.81837438046932 29.332712702453136 59.229231163859367 42.736921675503254 54.170206613838673 33.443552933633327 181.42336478829384 33.051431529223919 367.54699411988258 1382.4919531643391 281.65402759611607 222.11119116842747 61.783569231629372 527.75651535391808
leaf_count=4053 353 23552 393 1065 427 5217 237 6520 972 1610 683 101 3482 775 445 1348 932 210 327 191 319 170 1285 182 2937 11573 2425 1812 286 2782
internal_value=-0.000547273 -0.0151686 0.0139243 0.0463041 -0.0343458 -0.0076565 0.0049799 -0.0208633 -0.0369875 -0.00787969 0.0270919 0.0189838 0.0677138 0.0370267 0.047817 0.0803225 0.0054244 0.0645217 -0.0220632 0.0131908 0.0742718 -0.024057 -0.0110589 -0.0312564 -0.0285449 -0.0442928 -0.0290462 -0.0125536 0.0687043 0.0235876
internal_weight=10595.6 8075.41 3208.29 2520.16 4867.13 2289.66 1695.25 938.457 4740.46 951.048 1533.83 1371.54 918.628 756.791 665.172 343.093 1115.34 126.664 443.762 322.079 868.759 759.347 224.16 856.541 426.776 3789.42 725.904 444.25 97.9189 671.575
internal_count=76664 63784 21033 12880 42751 16839 11622 7055 42114 6989 8827 8144 4194 4567 3792 1793 7079 637 3365 1999 3801 6017 1476 6702 3264 35125 5847 3422 523 3714
is_linear=0
shrinkage=0.05


Tree=14
num_leaves=31
num_cat=0
split_feature=8 0 7 4 3 5 7 2 8 2 8 3 1 8 8 3 0 1 8 2 7 4 2 8 0 0 7 7 7 3
split_gain=2647.46 1687.91 1035.73 647.775 615.156 694.849 312.382 491.492 302.507 275.441 307.372 262.255 236.117 220.303 444.532 226.338 233.95 189.458 132.755 237.721 180.47 128.515 131.39 120.922 119.16 110.95 101.824 101.439 106.864 93.9295
threshold=-0.81039467453956593 0.79087024927139293 0.28771054744720465 -0.81269893050193776 -0.82949879765510548 0.1579675376415253 -0.39262482523918146 0.48538115620613104 0.69054731726646434 -0.34807078540325159 -1.2863031029701231 -0.46351481974124903 2.6872602701187138 0.49530281126499182 0.043799936771392829 0.49067175388336187 -0.92260357737541188 -1.4420551657676695 0.7881695330142976 0.49850180745124822 -0.17977765202522275 -1.1974573135375974 0.31272237002849584 -0.24906676262617108 -0.057006439194083207 -0.22600967437028882 -0.83202475309371937 -0.81373536586761464 -0.14449676871299741 2.0057473182678227
decision_type=2 2 2 2 2 2 2 2 2 2 2 2 2 2 2 2 2 2 2 2 2 2 2 2 2 2 2 2 2 2
left_child=4 3 12 13 -1 9 -5 29 21 10 -6 -9 18 14 17 16 -16 -2 19 -3 -21 -4 -23 -22 -7 -13 -20 -18 -29 -8
right_child=1 2 8 6 5 24 7 11 -10 -11 -12 25 -14 -15 15 -17 27 -19 26 20 23 22 -24 -25 -26 -27 -28 28 -30 -31
leaf_value=0.077689827528046498 0.061794056497601869 -0.031258058743346487 -0.031797617531959782 -0.048394911498679527 0.054974120297238305 0.023191468468000066 -0.036602215224878672 0.091475023672140138 -0.038931656394043314 0.025260554541970837 -0.04381222898434594 -0.037524605042704384 0.081739020937066878 -0.033805424200292582 -0.030383917512733907 -0.037446916460995232 -0.027555628902059145 -0.039620920955954139 0.17001146683158644 -0.0016817560147543106 -0.010136387762243631 0.0076317074636557307 0.081057447338291691 0.096412598690397491 0.071347678626442701 0.027552022473115362 -0.054314377954633647 0.095575388861421751 0.015811420426987726 0.082955731978551384
leaf_weight=840.47335707396269 54.100862324237823 427.93247599899769 29.128543943166733 2747.2447132840753 96.177759140729904 161.45076890289783 1415.0411927625537 115.22254525870085 67.060477502644062 521.68788611143827 434.37357883900404 109.17918932437897 68.155374825000763 281.35070596635342 58.698600955307484 66.006376437842846 21.688560575246811 309.54633661359549 5.1815010607242575 270.24780644476414 36.038382634520531 66.320238940417767 749.09408935159445 101.98265555500984 628.63654375076294 163.69932621717453 213.26080990582705 289.10755703598261 49.126323856413364 16.620983377099037
leaf_count=3555 250 3491 184 27415 482 807 12473 485 478 3058 3577 1016 285 2389 397 522 138 2509 35 1815 222 384 3147 466 2655 1040 1771 1278 257 83
internal_value=-0.000554135 -0.0154051 0.0236894 -0.0293667 0.042242 0.0260706 -0.0377521 -0.021685 0.0632828 -0.000537389 -0.0259043 0.0282229 -0.00845652 0.00453502 0.0172516 0.0486053 0.0621736 -0.0245331 -0.0142853 -0.0052185 0.0220752 0.0713991 0.0750855 0.0685918 0.0615072 0.00151475 -0.0489933 0.0772685 0.0839902 -0.0352142
internal_weight=10413.8 7731.04 2034.4 5696.63 2682.8 1842.33 4567.01 1819.76 911.603 1052.24 530.551 388.101 1122.8 1129.63 848.275 484.627 418.621 363.647 1054.64 836.201 408.269 844.543 815.414 138.021 790.087 272.879 218.442 359.922 338.234 1431.66
internal_count=76664 62530 12278 50252 14134 10579 42512 15097 4193 7117 4059 2541 8085 7740 5351 2592 2070 2759 7800 5994 2503 3715 3531 688 3462 2056 1806 1673 1535 12556
is_linear=0
shrinkage=0.05


Tree=15
num_leaves=31
num_cat=0
split_feature=3 2 0 2 4 2 3 3 0 3 4 7 7 4 0 3 7 7 0 4 9 4 7 7 0 0 0 2 7 1
split_gain=2191.17 897.741 862.863 653.288 623.409 366.902 333.765 221.767 202.319 178.286 258.222 240.433 167.774 291.756 151.926 174.567 129.787 171.789 125.132 121.899 114.556 149.129 257.45 114.07 111.25 105.733 122.734 160.268 107.127 100.641
threshold=-0.60188123583793629 0.57999321818351757 0.11835489422082902 0.39540255069732672 -0.90154746174812306 -1.8593163490295408 2.396313071250916 0.46696439385414129 2.2164933681488042 1.3919103145599367 0.99531871080398571 0.28771054744720465 2.3052271604537968 0.62257683277130138 0.13851558417081836 -1.6424019336700437 -0.80899256467819203 -0.25810110569000239 1.0959335565567019 1.9253112673759463 0.45761930942535406 -0.70880240201950062 -0.55274081230163563 0.39309568703174597 0.15025661885738376 0.12832200527191165 0.1430567875504494 0.3325782865285874 -0.36463458836078638 -0.57588285207748402
decision_type=2 2 2 2 2 2 2 2 2 2 2 2 2 2 2 2 2 2 2 2 2 2 2 2 2 2 2 2 2 2
left_child=1 5 4 6 7 14 12 16 -3 10 11 18 -4 -14 -1 24 -2 -18 29 -6 21 22 -7 -24 -16 28 -27 -28 -23 -5
right_child=2 8 3 9 19 20 -8 -9 -10 -11 -12 -13 13 -15 15 -17 17 -19 -20 -21 -22 25 23 -25 -26 26 27 -29 -30 -31
leaf_value=-0.050573102606836284 -0.02709375349742631 0.07556634144625618 -0.027279225938365903 0.026963562063980075 -0.043003510741665724 0.061064675434053972 0.080025829825459555 -0.046117347562281308 7.9140925768103746e-06 0.079978620711971149 -0.026698546504515669 0.062586660486465537 0.077193611825720251 -0.025493466371675058 0.082932892759575383 -0.034731156433442725 0.061527553208046398 -0.04117862770935813 0.041303607022953569 0.061623033284698495 -0.014303222631866057 0.067955422601415003 -0.031504062112312665 0.038850208267473735 -0.024592470935191044 0.093123448134692879 5.1282270064329448e-05 0.081807234172186272 -0.012823948473255098 -0.014650711168517464
leaf_weight=251.96135674417019 71.239489793777466 1091.2108516171575 1725.2175129801035 241.14445937424898 2951.101431325078 175.55675723403692 84.61971452832222 108.61099032312632 96.423826709389687 133.92558637261391 249.69688323885202 374.51475419104099 111.73675833642483 181.58142336457968 78.853190988302231 130.0678569227457 291.0311071947217 47.33586722612381 301.4739598184824 28.104373753070831 144.48033731430769 65.105848662555218 238.59673511981964 75.955285146832466 34.616101138293743 189.42570743709803 124.87972205877304 115.28184729069471 111.04747790843248 365.50193161517382
leaf_count=2480 495 4730 14619 1410 29376 841 357 1007 648 657 1869 1729 509 1351 356 1077 1489 360 1716 179 943 433 1625 391 257 839 781 492 794 2682
internal_value=-0.000619751 0.0359345 -0.0153256 0.00127045 -0.0332123 0.0130161 -0.0172572 0.0174024 0.0694318 0.0246561 0.019821 0.0288771 -0.0213355 0.0136242 -0.0233535 0.00480757 0.0342452 0.0471595 0.0149751 -0.0420165 0.0275454 0.0330629 0.0125573 -0.0145155 0.0501301 0.0496541 0.0630309 0.0392956 0.0170319 0.00189114
internal_weight=10190.3 2923.46 7266.84 3769.41 3497.42 1735.83 2103.16 518.217 1187.63 1666.26 1532.33 1282.64 2018.54 293.318 495.499 243.537 409.606 338.367 908.12 2979.21 1240.33 1095.85 490.109 314.552 113.469 605.741 429.587 240.162 176.153 606.646
internal_count=76492 16687 59805 26899 32906 11309 16836 3351 5378 10063 9406 7537 16479 1860 4170 1690 2344 1849 5808 29555 7139 6196 2857 2016 613 3339 2112 1273 1227 4092
is_linear=0
shrinkage=0.05


Tree=16
num_leaves=31
num_cat=0
split_feature=8 6 2 2 3 9 3 2 8 8 8 3 7 3 2 7 8 2 7 2 7 8 7 9 4 3 6 4 4 9
split_gain=2379.77 1437.19 1329.36 541.1 509.323 505.875 405.706 348.737 351.884 327.975 225.474 319.647 238.569 234.641 231.564 210.889 230.249 291.153 169.521 141.798 118.051 117.175 102.17 166.782 126.931 99.552 87.8433 82.0665 80.1842 79.7245
threshold=-0.79819187521934498 -1.0215885043144224 0.4559945166110993 0.61870115995407116 -0.98784360289573658 -0.5916001796722411 2.396313071250916 -0.37946133315563196 -1.2618975043296812 0.47089716792106634 0.056002749130129821 -0.89689943194389332 0.20397877693176272 0.57870459556579601 0.78500461578369152 -0.38638818264007563 0.49530281126499182 0.43099792301654821 -0.80899256467819203 0.72949048876762401 1.1926200389862063 0.73935842514038097 1.3162177801132204 -1.0132607817649839 0.97202003002166759 1.3919103145599367 -0.17961569875478742 -0.0075131012126803389 0.36072571575641638 -1.3725382685661314
decision_type=2 2 2 2 2 2 2 2 2 2 2 2 2 2 2 2 2 2 2 2 2 2 2 2 2 2 2 2 2 2
left_child=3 2 -2 4 -1 9 15 8 -6 10 12 -12 14 18 29 -7 17 -17 -13 20 25 -4 23 -9 -25 -19 -20 -24 -22 -3
right_child=1 5 21 -5 7 6 -8 22 -10 -11 11 13 -14 -15 -16 16 -18 19 26 -21 28 -23 27 24 -26 -27 -28 -29 -30 -31
leaf_value=0.072392144676978881 -0.021872292762300953 0.067325675483739314 0.076594760003307311 0.076426660022932497 0.054930892546091271 -0.047309749243909495 0.067371385985049728 0.07780999529785991 -0.041384429207478701 -0.039489572507358565 -0.042027102645363815 -0.02579379142740594 0.069874658198377085 -0.037083678576147305 0.088674910907525439 -0.030294984334535813 -0.050946293116790012 -0.020303492026265427 0.030587074496900065 0.098538528134005862 0.088933268534039767 -0.032664307054440372 0.08510855051444001 -0.0097379497547467816 0.061790265399337845 0.14938346010016329 0.082292008041524367 0.035173671590430645 0.007996084887754721 -0.037537211794076812
leaf_weight=452.57613327354193 690.78043516725302 18.823255255818367 764.70646332204342 734.52616331726313 122.05552347004414 2494.2767338678241 92.814760491251945 89.483481176197529 425.14869002252817 479.36749644577503 129.30778028070927 53.389928109943867 76.571452647447586 74.747271172702312 41.879878737032413 635.57078728079796 512.56683698296547 181.70473685115576 111.33544246852398 56.332576207816601 64.65590813010931 25.352636255323887 114.216533228755 354.49249974638224 75.176374539732933 9.0752754658460599 313.31884718686342 294.27131079137325 58.097562156617641 488.90970868617296
leaf_count=1899 5354 79 3301 3133 590 26310 405 376 3659 4606 961 386 384 666 194 5985 4715 1595 640 271 284 149 475 2077 414 53 1444 1650 368 4069
internal_value=-0.000613696 -0.0152431 0.0287914 0.0399098 0.0259934 -0.0263089 -0.0359764 0.0117554 -0.019901 -0.00410893 0.00885487 0.028743 -0.0128092 0.0452974 -0.0243286 -0.0383671 -0.0236732 -0.00976949 0.0581786 0.0255011 0.0123785 0.0730887 0.0304291 0.0157099 0.00277688 -0.0122316 0.0687361 0.0491359 0.0506268 -0.0336496
internal_weight=10035.5 7373.59 1480.84 2661.95 1927.42 5892.75 4105.1 1474.84 547.204 1787.65 1308.28 682.099 626.184 552.791 549.613 4012.28 1518 1005.44 478.044 369.866 313.533 790.059 927.64 519.152 429.669 190.78 424.654 408.488 122.753 507.733
internal_count=76492 62219 8804 14273 11140 53415 39986 9241 4249 13429 8823 4097 4726 3136 4342 39581 13271 8556 2470 2571 2300 3450 4992 2867 2491 1648 2084 2125 652 4148
is_linear=0
shrinkage=0.05


Tree=17
num_leaves=31
num_cat=0
split_feature=8 0 7 4 2 3 2 6 2 4 6 3 6 7 8 7 2 3 0 2 0 4 8 8 4 8 4 0 3 1
split_gain=2173.04 1359.2 873.926 517.6 492.974 463.384 322.68 301.324 367.11 258.675 206.995 255.179 197.394 148.076 235.184 146.168 159.858 120.333 111.48 111.143 109.576 137.883 201.272 175.631 100.001 97.4991 94.2164 115.808 105.988 90.2244
threshold=-0.79819187521934498 0.79087024927139293 0.28771054744720465 -0.90154746174812306 0.61870115995407116 -0.98784360289573658 -1.541032552719116 -0.96568444371223439 0.45995856821537023 0.73905789852142345 -0.051035610958933823 0.46696439385414129 1.5019726753234866 -0.77202403545379628 0.043799936771392829 -0.39262482523918146 0.45193193852901464 1.2227912545204165 -0.22600967437028882 0.64936181902885448 1.7220349311828616 -0.95294949412345875 -0.13924184441566465 0.58072224259376537 -1.1974573135375974 0.84918347001075756 -1.1738630533218382 0.14305672794580462 -0.46351481974124903 0.40864482522010809
decision_type=2 2 2 2 2 2 2 2 2 2 2 2 2 2 2 2 2 2 2 2 2 2 2 2 2 2 2 2 2 2
left_child=4 3 12 10 5 -1 -7 8 -5 24 19 13 20 -12 -15 -9 -17 26 -18 -2 -3 22 -22 -23 -4 -26 -8 28 -28 -20
right_child=1 2 9 7 -6 6 17 15 -10 -11 11 -13 -14 14 -16 16 18 -19 29 -21 21 23 -24 -25 25 -27 27 -29 -30 -31
leaf_value=0.069218685254905141 -0.038759614919231675 -0.025189633341096258 -0.027419782744823037 -0.021751198400691042 0.073103983466271727 -0.042587726414706518 0.065367206023225155 -0.047165717682453583 0.079515263996707441 -0.024135514121501712 -0.015487746034300863 -0.039460955729253178 0.072208986170286024 -0.013160660898473554 0.075267698688049375 -0.037381160146211866 -0.032250620144292828 0.080294837549141101 0.053113257894931404 0.061650569095721253 0.11024245538720988 0.08499558926015463 -0.05402410602882543 -0.037536236820066064 0.072699330841018775 -0.055558693121960802 0.051084175673344105 0.02449227393085392 -0.023286673686607969 -0.013157114157298972
leaf_weight=449.7290355861187 267.26408191770315 731.91030485928059 27.189970403909683 417.77875308692455 729.63593021035194 234.25773809105158 93.596139997243881 2536.9590355977416 113.89483972638845 86.770169720053673 100.36643381416798 132.28639663010836 69.041322506964207 101.193872384727 292.61197323352098 912.27553836256266 140.05490975081921 81.09741722792387 122.35686925053596 30.727640330791473 22.654369026422501 94.764517225325108 105.43556386232376 42.297634318470955 748.67556811869144 15.116555184125898 57.545805752277374 715.19573345035315 285.98958086967468 88.514573141932487
leaf_count=1899 2112 5943 177 3524 3133 2112 390 28059 503 611 710 1233 331 715 1365 8948 1375 348 757 138 101 457 824 337 3311 88 339 4037 2015 600
internal_value=-0.000612871 -0.0148544 0.0208687 -0.0280654 0.0381251 0.0248145 0.0112082 -0.0353137 -5.79496e-05 0.0578165 0.00589883 0.0222167 -0.00955148 0.0387274 0.0525448 -0.0402462 -0.0263494 0.0214253 0.00232903 -0.0284057 -0.015213 0.0123261 -0.0249714 0.047182 0.0668066 0.0701609 0.0172823 0.0130314 -0.0108288 0.0252959
internal_weight=9847.19 7200.14 1943.86 5256.28 2647.05 1917.41 1467.68 4331.83 531.674 877.752 924.45 626.459 1066.1 494.172 393.806 3800.16 1263.2 1233.42 350.926 297.992 997.062 265.152 128.09 137.062 790.982 763.792 1152.33 1058.73 343.535 210.871
internal_count=76492 62219 12180 50039 14273 11140 9241 43766 4027 4187 6273 4023 7993 2790 2080 39739 11680 7129 2732 2250 7662 1719 925 794 3576 3399 6781 6391 2354 1357
is_linear=0
shrinkage=0.05


Tree=18
num_leaves=31
num_cat=0
split_feature=8 0 8 4 2 3 2 4 2 8 8 0 2 3 5 8 3 5 5 8 0 2 0 3 8 9 0 5 1 3
split_gain=1983.91 1259.67 527.192 487.197 451.899 423.736 422.009 479.154 297.256 314.746 247.555 236.357 269.158 234.506 226.952 188.434 180.652 278.51 146.725 119.625 157.002 112.924 85.6904 83.359 83.3014 83.0296 133.992 82.5843 80.0196 75.6052
threshold=-0.79819187521934498 0.79087024927139293 0.66614165902137767 -0.7712574005126952 0.61870115995407116 -1.0103334784507749 0.31272237002849584 -1.1496146917343137 -0.37946133315563196 -1.2618975043296812 -0.26126958429813379 0.11835489422082902 0.45193193852901464 -0.46351481974124903 1.1327119469642641 -0.45651406049728388 0.5130419433116914 0.23476070165634158 0.42548592388629919 0.031597126275300987 -1.024730861186981 0.64936181902885448 0.29305872321128851 -0.58688360452651966 0.49530281126499182 -1.0132607817649839 0.13851558417081836 0.56772351264953624 -1.4420551657676695 -0.67793297767639149
decision_type=2 2 2 2 2 2 2 2 2 2 2 2 2 2 2 2 2 2 2 2 2 2 2 2 2 2 2 2 2 2
left_child=4 3 6 16 5 -1 14 15 9 -7 23 -5 -13 -14 29 -8 17 21 -12 28 -21 -2 -11 -9 -22 -10 -27 -28 -19 -3
right_child=1 2 -4 11 -6 8 7 10 25 22 18 12 13 -15 -16 -17 -18 19 -20 20 24 -23 -24 -25 -26 26 27 -29 -30 -31
leaf_value=0.067022102471090916 -0.026949366934794772 0.015440402291076469 -0.042901817136084326 -0.044866668349087438 0.07006913160279446 0.050606210505323282 0.097412363572012758 0.075634773170160596 0.072314650788516108 -0.043549132677024302 0.075993662748040147 -0.032111863115070298 0.079830105306087404 -0.0081757328113994457 0.074488707345077301 -0.043795846827865886 -0.042337059719792666 0.075506433536275425 -0.0027499596834773148 -0.027459857794811249 0.073637292941648544 0.064186924876956583 0.11315777364025881 -0.016322207030798501 0.0082885078122585248 -0.0080420831406064399 0.026664145617256382 0.074079184976735934 -0.027844050331328609 -0.040881420274611002
leaf_weight=435.11522161960602 394.61079914867878 76.279441952705383 282.92363785207272 2535.1403545662761 723.33381068706512 124.70122498273849 27.330272018909454 30.672354340553284 94.178955391049385 400.14822468906641 800.05794003605843 1076.8747776225209 106.8882395401597 259.38858625292778 63.111729353666306 174.28341701626778 195.45839267224073 23.16793005168438 63.881302893161774 57.475723244249821 274.21294029802084 37.192918017506599 8.918022468686102 125.40616195648909 59.314476870000362 248.4217162206769 484.97843831032515 113.28593088686466 97.747875317931175 272.25631888955832
leaf_count=1849 3142 470 2433 28761 3133 593 120 138 400 3619 3645 10435 474 1980 293 1276 2001 103 470 460 1275 166 49 830 451 1613 2536 481 791 2505
internal_value=-0.000609103 -0.0144681 0.020111 -0.027416 0.036412 0.0236641 0.0310264 0.0457798 0.0108705 -0.0189339 0.0597016 -0.0356715 -0.0195186 0.0175065 -0.0127569 -0.024654 0.00141412 0.0104756 0.0701712 0.0354222 0.0488632 -0.0190994 -0.0401328 0.00174906 0.0620157 0.0277791 0.0228253 0.0356425 -0.0080417 -0.028555
internal_weight=9666.76 7033.68 1916.2 5117.47 2633.08 1909.75 1633.28 1221.63 1474.63 533.767 1020.02 3978.29 1443.15 366.277 411.647 201.614 1139.18 943.723 863.939 511.919 391.003 431.804 409.066 156.079 333.527 940.865 846.686 598.264 120.916 348.536
internal_count=76492 62219 12180 50039 14273 11140 9747 6479 9291 4261 5083 41650 12889 2454 3268 1396 8389 6388 4115 3080 2186 3308 3668 968 1726 5030 4630 3017 894 2975
is_linear=0
shrinkage=0.05


Tree=19
num_leaves=31
num_cat=0
split_feature=8 0 6 4 1 6 2 3 3 8 2 2 4 5 8 8 3 6 5 2 0 8 8 0 1 8 1 2 5 8
split_gain=1814.85 1167.15 542.59 459.277 415.575 305.865 359.773 293.959 330.13 256.107 212.004 180.161 276.469 232.157 183.79 179.555 178.223 324.051 141.103 125.432 117.638 156.75 103.302 87.1943 83.3195 73.9575 72.6729 101.728 114.175 71.3411
threshold=-0.79819187521934498 0.79087024927139293 -1.1871943473815916 -0.74644988775253285 -0.62801897525787342 -0.81135067343711842 0.49400040507316595 -1.2452293634414671 0.91279485821723949 0.66614165902137767 -1.6605765819549558 0.35894067585468298 -1.1067375540733335 1.1327119469642641 -0.26126958429813379 -0.45651406049728388 0.50193318724632274 0.19126398861408236 0.42548592388629919 0.64936181902885448 -1.3875713944435117 0.031597126275300987 0.73935842514038097 0.14305672794580462 1.8384674787521365 0.080408245325088515 0.99067121744155895 -0.26169392466545099 -0.2313577979803085 1.7765946984291079
decision_type=2 2 2 2 2 2 2 2 2 2 2 2 2 2 2 2 2 2 2 2 2 2 2 2 2 2 2 2 2 2
left_child=4 3 22 16 -1 6 -5 -6 10 11 -9 13 15 -4 -14 -13 17 19 -16 -2 -19 -22 -3 -12 -7 -26 -25 -28 -29 -23
right_child=1 2 9 5 7 24 -8 8 -10 -11 23 12 14 -15 18 -17 -18 20 -20 -21 21 29 -24 26 25 -27 27 28 -30 -31
leaf_value=0.065079870984649651 -0.029840334943319408 0.06637604079302821 -0.032812608074292322 -0.021045359394851471 0.070959020305281853 -0.042699537308063459 0.076298273410465911 -0.041504786437712618 0.066341243702482511 -0.044103092527107812 -0.0095700762890404446 0.095808841105485348 -0.0070439706541616139 0.072956475552072769 0.075033989977091653 -0.043820670177524314 -0.040623002725617141 -0.043595171937909981 -0.0073695277469258517 0.054313597969230513 -0.0081529616584720462 0.065164237346186107 -0.035120465008215744 0.033762193848078888 0.12289872361047877 -0.035086713451877902 -0.027278634984659218 0.066594253693145533 -0.020829820315122472 -0.05816077890150672
leaf_weight=792.79825242608786 405.76801941543818 519.08199206739664 314.68309709429741 589.79262880980968 259.6829916164279 3082.3789392188191 113.12514227628708 218.23058526217937 248.5207312554121 243.24251502752304 318.08161226660013 26.782051026821136 124.58607556670904 62.122472524642944 340.56535346060991 164.08593195676804 213.88346949219704 40.945898957550526 61.30072944611311 49.703166358172894 107.04431123286486 340.79772648215294 26.341704800724983 472.74883591383696 14.378966338932516 15.279492840170859 147.81196330487728 91.097855173051357 63.294400691986084 12.144636765122412
leaf_count=3455 3324 2448 2851 5446 1119 35018 517 2050 1074 2249 2283 117 810 296 1555 1242 2269 373 451 238 810 1759 161 2228 67 133 1180 560 324 85
internal_value=-0.000604045 -0.0140959 0.0194438 -0.026763 0.0348681 -0.0351685 -0.00537921 0.0217038 0.0135035 0.0023024 0.00348933 0.0126191 0.0273243 -0.0153749 0.0460149 -0.0242283 0.000637814 0.0098651 0.0624641 -0.0206571 0.0376173 0.0448464 0.0614742 0.0124727 -0.041897 0.0415075 0.0215202 0.0023695 0.030754 0.0609207
internal_weight=9480.3 6868.03 1882.79 4985.24 2612.27 3814.96 702.918 1819.47 1559.79 1337.37 1311.27 1094.13 717.32 376.806 526.452 190.868 1170.29 956.404 401.866 455.471 500.933 459.987 545.424 1093.03 3112.04 29.6585 774.953 302.204 154.392 352.942
internal_count=76492 62219 12180 50039 14273 41181 5963 10818 9699 9571 8625 7322 4175 3147 2816 1359 8858 6589 2006 3562 3027 2654 2609 6575 35218 200 4292 2064 884 1844
is_linear=0
shrinkage=0.05


Tree=20
num_leaves=31
num_cat=0
split_feature=8 0 7 4 4 7 2 3 3 4 2 3 3 6 8 7 8 7 8 3 8 2 7 7 3 6 7 2 8 2
split_gain=1674.53 1061.1 688.701 457.689 387.508 266.954 306.697 230.477 291.656 226.607 175.412 169.539 165.362 265.545 159.966 260.731 148.974 211.617 179.05 169.599 160.333 113.683 111.129 109.362 94.3615 91.9181 87.8184 122.54 85.9771 85.0362
threshold=-0.79819187521934498 0.77484476566314708 0.33572129905223852 -0.7712574005126952 -0.56035703420639027 -0.39262482523918146 0.48538115620613104 0.91279485821723949 -1.2452293634414671 0.78569942712783825 -1.541032552719116 -0.41267299652099604 0.5462949573993684 -0.03010616265237331 -0.0660251099616289 -0.77202403545379628 0.84918347001075756 -0.12591802328824994 -0.26126958429813379 0.25001464784145361 -0.40770295262336725 0.6434275507926942 -0.67242324352264393 -0.83202475309371937 -0.040206914767622941 -0.82128146290779103 -0.38638818264007563 0.27758339047431951 -1.2618975043296812 -0.14357653260231015
decision_type=2 2 2 2 2 2 2 2 2 2 2 2 2 2 2 2 2 2 2 2 2 2 2 2 2 2 2 2 2 2
left_child=4 3 16 12 -1 25 -7 8 -6 -4 28 -8 13 21 -15 -16 17 20 19 -19 22 -2 -3 -18 -22 -5 -26 -28 -10 -17
right_child=1 2 9 5 7 6 11 -9 10 -11 -12 -13 -14 14 15 29 23 18 -20 -21 24 -23 -24 -25 26 -27 27 -29 -30 -31
leaf_value=0.060054006559090357 -0.034762888945810845 -0.047501372617739859 0.063438454840634484 0.014971655020647026 0.063540134387496658 -0.030439137773501348 0.076610886819569013 0.064853209950283069 0.055709839724255188 -0.02618797254533043 0.011270355448016699 -7.9324802976847125e-05 -0.044237937383796215 -0.016502807386669951 -0.029445701461342927 -0.035310931073489836 0.17164333660085021 -0.040177554236681214 0.063476259456947667 0.072689242313907929 -0.043477098322374293 0.055580622473870855 0.094934814131786852 -0.053761866433214504 -0.02617624703005433 -0.047481444606827218 -0.049954519048048651 0.10158238217412355 -0.0478400226233784 0.069631130401526867
leaf_weight=903.54153688251972 309.60294065624475 19.176855072379112 696.19922134280205 60.599339455366135 230.99771952629089 1190.4913966730237 104.0632069632411 240.48369464278221 22.245364382863045 78.473942667245865 998.34002248197794 234.37625031173229 164.4395259693265 140.04027731716633 94.533547036349773 20.451667934656143 5.5413411781191817 115.37162978202105 195.16016852110624 46.778911016881466 327.78784354776144 39.233745969831944 47.894593924283981 186.19376391917467 94.26370120793581 2120.9354704394937 19.991358496248722 40.101908415555954 202.73526232689619 343.9654830172658
leaf_count=4003 2648 148 3321 579 1009 12086 474 1042 115 573 6089 1945 1824 1113 739 171 36 839 1019 228 2898 178 264 1796 847 26239 207 210 2043 1682
internal_value=-0.000460526 -0.0136816 0.0182585 -0.0260857 0.0336088 -0.034519 -0.018499 0.0195101 0.0120123 0.0543593 0.00228237 0.0235013 0.00204749 0.0100776 0.030274 0.0445471 -0.00720574 0.00126329 0.0312138 -0.00761654 -0.018222 -0.0246019 0.0542099 -0.0472474 -0.028298 -0.0457466 0.0039358 0.0511703 -0.0376013 0.0637416
internal_weight=9294.01 6695.67 1872.94 4822.73 2598.34 3710.47 1528.93 1694.8 1454.32 774.673 1223.32 338.439 1112.27 947.828 598.991 458.951 1098.26 906.527 357.311 162.151 549.216 348.837 67.0714 191.735 482.145 2181.53 154.357 60.0933 224.981 364.417
internal_count=76365 62064 12386 49678 14301 41323 14505 10298 9256 3894 8247 2419 8355 6531 3705 2592 8492 6660 2086 1067 4574 2826 412 1832 4162 26818 1264 417 2158 1853
is_linear=0
shrinkage=0.05


Tree=21
num_leaves=31
num_cat=0
split_feature=3 2 2 3 3 7 4 4 7 2 9 1 7 5 9 1 7 7 7 7 1 9 3 1 7 4 7 7 5 2
split_gain=1354.65 592.741 481.316 330.519 321.152 312.138 326.021 284.514 266.021 237.08 155.371 125.502 116.79 112.525 146.806 111.851 182.478 107.594 83.4348 79.1448 77.0061 76.2573 70.4638 92.0774 69.7893 104.277 63.7889 121.214 89.3003 62.4887
threshold=-0.60188123583793629 0.57999321818351757 0.49400040507316595 2.0057473182678227 0.24216809123754504 0.28771054744720465 -1.1738630533218382 1.0186124444007876 -0.43133203685283655 -1.8593163490295408 1.0221778750419619 0.42507193982601171 2.6398864984512334 -0.77398118376731861 -1.2404831647872923 -1.2725287079811094 -0.45852407813072199 2.4727361202239995 -0.35684928297996515 0.68789851665496837 1.3449611663818362 -0.55431127548217762 1.6329206824302676 0.66834941506385814 -0.62839031219482411 -0.73254412412643422 -0.26555867493152613 -0.66303503513336171 -0.53416433930397023 0.67811799049377453
decision_type=2 2 2 2 2 2 2 2 2 2 2 2 2 2 2 2 2 2 2 2 2 2 2 2 2 2 2 2 2 2
left_child=1 9 3 5 11 6 18 17 10 -1 -6 -4 22 24 -15 16 -3 -7 -2 -16 21 26 23 29 -11 -26 27 28 -8 -10
right_child=2 15 4 -5 8 7 20 -9 12 13 -12 -13 -14 14 19 -17 -18 -19 -20 -21 -22 -23 -24 -25 25 -27 -28 -29 -30 -31
leaf_value=-0.021281954782858263 0.05147287965059158 0.064884244604379693 0.038248441366431879 0.061538332877510052 -0.032652458218493767 0.0098027223367486219 0.12678707754438159 -0.027841192139589577 0.0006434658411007681 0.078716299547913537 0.04743696192958221 -0.010955950236912254 0.07825337712559631 0.061299063270091103 -0.038520670214356158 0.072004016082902203 -0.0015261862839360313 0.060085172568633528 -0.034284574311146301 0.010219835581952191 0.0072349970027020235 -0.04401091722321801 0.06467140952782989 -0.033254602977315445 -0.0061465656391717126 0.039745150942426949 -0.040826626375862318 0.014841448998554725 -0.048414400863743712 0.053999916843555429
leaf_weight=432.7467622384429 135.66189758479595 265.59101532399654 725.90728288888931 113.46841456741095 776.96012383699417 430.17211312800646 7.5899952799081793 562.98711339384317 150.22711656987667 77.152206279337406 65.675080224871635 157.75715085864067 73.284957885742188 81.647070497274399 162.29352433979511 628.17358569055796 169.42040244489908 141.34567660093307 35.859482727944851 171.09069696068764 93.259355373680592 2006.5136829316616 51.090990133583546 122.59541820734739 163.98533268272877 504.89885115623474 345.07236994802952 207.25767457485199 174.17649623006582 86.453367047011852
leaf_count=4170 675 1273 4064 618 8122 3270 48 5092 1398 410 412 1056 325 403 1337 3001 1078 725 287 1070 881 23850 245 1181 1093 2795 3257 1780 1962 487
internal_value=-0.000461129 0.0295934 -0.0128162 -0.0226514 0.00611299 -0.0249589 -0.0333942 -0.00261312 -0.00944519 0.0103052 -0.0264103 0.0294642 0.020112 0.0220781 0.00120895 0.0585083 0.0390199 0.0222384 0.0335438 -0.0135073 -0.0374457 -0.0389661 0.00972887 0.00191574 0.033688 0.0284942 -0.0251772 -0.0112958 -0.0410985 0.0201332
internal_weight=9120.32 2657 6463.32 4253.36 2209.95 4139.9 3005.39 1134.5 1326.29 1593.81 842.635 883.664 483.652 1161.07 415.031 1063.19 435.011 571.518 171.521 333.384 2833.87 2740.61 410.367 359.276 746.036 668.884 734.097 389.024 181.766 236.68
internal_count=76365 16630 59735 42445 17290 41827 32740 9087 12170 11278 8534 5120 3636 7108 2810 5352 2351 3995 962 2407 31778 30897 3311 3066 4298 3888 7047 3790 2010 1885
is_linear=0
shrinkage=0.05


Tree=22
num_leaves=31
num_cat=0
split_feature=8 9 7 9 7 8 8 8 6 2 3 3 2 8 7 1 2 3 6 7 7 2 2 7 1 7 1 2 2 2
split_gain=1491.48 980.687 837.437 390.464 308.127 298.461 260.974 449.971 225.216 230.579 201.161 243.631 288.952 264.765 179.969 195.02 167.712 157.388 153.771 131.4 102.256 101.098 95.2784 105.559 92.4673 91.6141 161.457 114.295 91.2604 72.8841
threshold=-0.74938073754310597 -0.50887230038642872 0.33572129905223852 -0.85651656985282887 -0.39262482523918146 0.49530281126499182 0.50750562548637401 0.031597126275300987 1.2199937105178835 0.68354353308677684 1.2227912545204165 -1.3373031020164488 -0.24720881134271619 -1.2618975043296812 -0.76112246513366688 -1.7498626112937925 0.55087125301361095 0.62431222200393688 -0.73284679651260365 -0.72844919562339772 -0.49189223349094385 -1.6605765819549558 0.61870115995407116 1.3162177801132204 -0.86516693234443653 1.1926200389862063 0.83540001511573803 0.28378370404243475 0.30493623018264776 0.81625795364379894
decision_type=2 2 2 2 2 2 2 2 2 2 2 2 2 2 2 2 2 2 2 2 2 2 2 2 2 2 2 2 2 2
left_child=3 2 6 -1 -3 8 7 16 9 25 11 -5 13 -13 -9 20 -2 21 28 -14 -16 -17 23 -21 -23 -6 27 -27 -4 -18
right_child=1 4 18 10 5 -7 -8 14 -10 -11 -12 12 19 -15 15 17 29 -19 -20 22 -22 24 -24 -25 -26 26 -28 -29 -30 -31
leaf_value=0.063847383706935296 -0.035659143205138688 -0.045238104442972847 0.0045546870546414545 0.065463224920939644 -0.027249379310693857 -0.047814865078170385 -0.039098922047731119 -0.027607719437624328 0.074800536927739344 0.070750054558647149 0.072883983258967486 0.037985513816395186 -0.016483697612706027 -0.037782975151626 0.053012959500467118 -0.05197396284805255 0.0027364299273004689 -0.031777855151421806 -0.012045963840490975 0.0034971826356821598 -0.054500115418472064 0.046569628676988647 0.067381840114848573 0.04323517382212877 0.091584268834369681 -0.0097382786364273062 -0.026443332223443007 0.074578346715586039 0.067443086889641096 0.08157519999191748
leaf_weight=674.79128714650869 642.10098768025637 1874.4854714497924 63.789719313383102 211.50956577062607 576.44972085952759 491.60835045576096 512.18071247637272 115.21479404717684 89.998680159449577 85.777516402304173 163.74895794689655 154.18650171160698 160.02140545845032 457.14339499175549 31.677424177527428 18.956231869757175 161.44258266687393 50.20872563123703 79.727279134094715 313.5710913091898 73.271220244467258 266.77446805685759 162.14307150989771 357.81430251151323 199.31956036388874 67.056634172797203 191.30130398273468 100.3232604637742 603.02832897752523 35.819420874118805
leaf_count=3138 6211 24193 429 950 5948 5185 5587 1013 501 414 725 719 870 4337 147 190 1063 525 533 1961 655 1306 703 1847 1199 563 1810 530 2952 161
internal_value=-0.00045558 -0.0136477 0.00807569 0.0310003 -0.0314758 -0.0153778 -0.00804767 0.00192475 -0.0010234 -0.00770769 0.0198067 0.0150217 0.00837393 -0.018673 0.0299204 0.0402735 -0.0232712 0.052493 0.0535805 0.0250159 -0.0220487 0.0612161 0.032983 0.0246755 0.0658196 -0.0149045 0.00493553 0.040799 0.061427 0.0170522
internal_weight=8985.44 6330.51 2853.51 2654.93 3477 1602.52 2106.97 1594.79 1110.91 1020.91 1980.14 1816.39 1604.88 611.33 755.422 640.208 839.363 535.259 746.545 993.55 104.949 485.05 833.528 671.385 466.094 935.131 358.681 167.38 666.818 197.262
internal_count=76365 61115 21971 15250 39144 14951 18057 12470 9766 9265 12112 11387 10437 5056 5035 4022 7435 3220 3914 5381 802 2695 4511 3808 2505 8851 2903 1093 3381 1224
is_linear=0
shrinkage=0.05


Tree=23
num_leaves=31
num_cat=0
split_feature=8 9 7 9 0 8 8 0 6 9 7 6 2 2 8 7 0 0 8 7 0 6 2 8 7 8 4 7 6 9
split_gain=1367.82 913.521 710.542 348.902 336.967 263.941 313.072 193.627 185.386 227.238 184.406 175.607 172.809 171.905 194.615 228.431 149.527 135.123 132.189 124.698 124.242 118.916 110.871 162.328 110.521 113.679 103.251 86.7719 85.7077 79.6171
threshold=-0.79819187521934498 -0.55431127548217762 0.33572129905223852 -0.80288404226303089 0.11835489422082902 0.56851944327354442 0.031597126275300987 0.1078777462244034 -0.1157550662755966 0.99553641676902782 -0.76112246513366688 1.5220722556114199 0.74951466917991649 0.3369013667106629 0.62953338027000438 -0.38638818264007563 0.1430567875504494 2.0682324171066289 1.0000000180025095e-35 2.6398864984512334 -0.47261984646320337 1.5872298479080202 -0.34807078540325159 -1.2618975043296812 0.23374644666910174 -0.28567507863044733 1.531164348125458 -0.72844919562339772 -0.85892152786254872 -1.3725382685661314
decision_type=2 2 2 2 2 2 2 2 2 2 2 2 2 2 2 2 2 2 2 2 2 2 2 2 2 2 2 2 2 2
left_child=3 2 5 -1 19 6 12 26 9 -9 -8 13 24 -6 15 -15 -4 20 -13 -3 -12 -22 23 -11 29 -26 -5 -10 -19 -2
right_child=1 4 16 7 11 -7 10 8 27 22 17 18 -14 14 -16 -17 -18 28 -20 -21 21 -23 -24 -25 25 -27 -28 -29 -30 -31
leaf_value=0.061145221381228076 0.051810017441053735 -0.045511858894964792 -0.011881301879974739 -0.018165685094407653 -0.032234489344779758 -0.041094337051302963 -0.029038630226448033 0.042513813781523038 -0.0018712857288367695 0.041943108246593828 0.0032287607651090115 0.091084212294556141 0.06505053869158571 -0.028027696884371359 -0.041170284102396704 0.038474550146777912 0.060804859416464477 0.081148110304951407 -0.04458836309037343 0.14983496962573034 0.065360950658312794 -0.04100059997905272 0.020762710059796539 -0.043201836516960558 -0.037406664061483942 0.082081576220758831 0.087049407124967143 0.064008980960215109 -0.05139364029578454 -0.035600810538494974
leaf_weight=683.06858042627573 27.177584640681744 1801.1485912278295 79.888908199965954 372.84305369108915 922.48303914815187 424.37902807444334 126.65178398787975 451.43437298387289 57.675601445138454 72.041566953063011 133.2957011833787 65.550963878631592 57.202145121991634 199.56983131915331 212.02168440818787 365.83743318170309 618.82303747534752 15.200976200401781 24.725623227655888 8.2065500915050489 404.13227257877588 28.106880962848663 237.88121701031923 251.04254315793514 35.308947026729584 45.628493770956993 24.872896872460842 374.66055843234062 61.721436388790607 628.14513888955116
leaf_count=3207 130 24460 571 2771 10015 4761 1170 2157 263 337 950 344 277 2003 2175 2187 3143 72 232 52 2191 234 1305 2513 213 211 113 1635 574 6099
internal_value=-0.000455471 -0.0129435 0.00912471 0.0306233 -0.0294089 -0.00612616 0.00337085 0.0193076 0.0278121 0.0161077 0.0261031 -0.014029 -0.0186637 -0.0176379 -0.000317772 0.0150015 0.0524941 0.0369735 0.0539252 -0.0446258 0.0454304 0.0584447 -0.00514255 -0.0242161 -0.0251676 0.0299548 -0.0115856 0.0552203 -0.0252015 -0.0319757
internal_weight=8810.73 6285.21 2685.66 2525.52 3599.54 1986.95 1562.57 1842.45 1444.74 1012.4 769.109 1790.19 793.462 1699.91 777.429 565.407 698.712 642.457 90.2766 1809.36 565.535 432.239 560.965 323.084 736.26 80.9374 397.716 432.336 76.9224 655.323
internal_count=76365 62064 20596 14301 41468 16882 12121 11094 8210 6312 5191 16956 6930 16380 6365 4190 3714 4021 576 24512 3375 2425 4155 2850 6653 424 2884 1898 646 6229
is_linear=0
shrinkage=0.05


Tree=24
num_leaves=31
num_cat=0
split_feature=8 9 7 9 7 8 8 8 5 0 7 1 6 9 0 0 9 4 7 0 6 8 5 4 7 1 7 7 0 0
split_gain=1258.1 854.973 712.999 343.031 288.757 273.847 227.908 350.775 223.493 204.499 179.519 185.49 164.914 214.095 151.902 147.181 126.07 122.424 111.314 104.83 119.47 100.855 99.5703 93.1905 90.5353 143.899 82.2214 81.5021 80.5433 77.2909
threshold=-0.74938073754310597 -0.50887230038642872 0.33572129905223852 -0.90015539526939381 -0.39262482523918146 0.49530281126499182 0.56851944327354442 0.043799936771392829 0.93038165569305431 0.1078777462244034 -0.73896414041519154 -1.7498626112937925 0.038489330559968955 1.0221778750419619 -0.10213263332843779 1.3382608890533449 -1.3725382685661314 -1.2218565940856931 0.23374644666910174 -0.36336193978786463 1.5872298479080202 -0.28567507863044733 -0.67229518294334401 1.6942024827003481 0.92592057585716259 0.39632308483123785 1.5489131808280947 -0.57289162278175343 1.9586277604103091 0.3505877703428269
decision_type=2 2 2 2 2 2 2 2 2 2 2 2 2 2 2 2 2 2 2 2 2 2 2 2 2 2 2 2 2 2
left_child=3 2 6 -1 -3 8 7 16 15 23 -9 27 13 -11 -4 24 -2 -16 28 -13 -21 -20 26 -5 -6 -26 -15 -12 -18 -27
right_child=1 4 14 9 5 -7 -8 10 -10 12 11 19 -14 22 17 -17 18 -19 21 20 -22 -23 -24 -25 25 29 -28 -29 -30 -31
leaf_value=0.061339413563360971 0.056600629890930315 -0.044138772256581853 -0.038538884886557899 -0.016136102054188892 -0.028184997737241126 -0.046694837454304888 -0.039456312015635188 -0.025480290056732354 0.072640505716757314 0.039679434576861121 0.054025784747033047 0.010595787094141123 0.055576984046953243 0.019938007374486991 -0.017808179648990525 0.049782660150540746 -0.035862487818070138 0.062456945291802804 -0.034197411828623424 0.068253019281021052 -0.043790229121700823 0.076723396361726925 0.015809303682732957 0.093549172684750881 0.055625342934134285 -0.024481027140570401 -0.041990718160968887 -0.051019894195815832 0.075762447801455857 0.052681519744507459
leaf_weight=612.49222056567669 48.430800706148148 1744.7178053632379 45.018609791994095 428.06803347915411 501.19904293119907 460.38921908289194 438.95235586166382 142.96045358479023 94.922178164124489 567.23030053079128 24.330244429409504 138.00129443407059 384.16124808043242 73.158146269619465 51.434816807508469 100.00756131857634 671.13220442831516 621.98416066169739 36.516762733459473 374.55595115572214 25.405496172606945 46.703197456896305 314.66981533914804 20.282412491738796 100.10355883091688 243.4137088060379 200.45131355524063 76.598999597132206 16.558941870927811 37.445444345474243
leaf_count=2953 223 24193 419 3306 5563 5185 5126 1341 537 2764 117 993 1741 519 294 531 6781 3201 226 2021 215 218 1825 91 606 2311 2051 713 83 218
internal_value=-0.000454478 -0.0129721 0.00754612 0.0286229 -0.0302169 -0.0144186 -0.00753852 0.00121144 -0.000622506 0.0185432 0.0251684 0.0365018 0.0271968 0.0177615 0.050382 -0.00770304 -0.0216494 0.0563264 -0.0265653 0.0481712 0.061136 0.0280516 -0.00337213 -0.0111742 -0.01422 0.00415253 -0.0254321 -0.0256973 -0.0331747 -0.0141934
internal_weight=8641.3 6040.78 2758.58 2600.51 3282.2 1537.48 2040.15 1601.19 1077.09 1988.02 781.852 638.892 1539.67 1155.51 718.438 982.169 819.342 673.419 770.911 537.963 399.961 83.22 588.279 448.35 882.162 380.963 273.609 100.929 687.691 280.859
internal_count=76365 61115 21971 15250 39144 14951 18057 12931 9766 12297 5400 4059 8900 7159 3914 9229 7531 3495 7308 3229 2236 444 4395 3397 8698 3135 2570 830 6864 2529
is_linear=0
shrinkage=0.05


Tree=25
num_leaves=31
num_cat=0
split_feature=8 9 7 9 0 8 8 0 0 6 0 0 6 9 2 2 7 5 8 7 6 2 8 7 1 1 6 9 2 7
split_gain=1153.9 827.549 714.266 339.935 229.619 217.665 396.111 193.091 179.065 165.495 163.885 155.113 151.81 204.929 170.134 143.244 126.9 121.713 115.941 107.981 101.809 98.6346 139.717 124.303 95.9327 90.7058 90.1962 89.7104 87.7916 85.9725
threshold=-0.73717793822288502 -0.44737394154071802 0.3099933415651322 -0.90015539526939381 0.11835489422082902 0.53191110491752636 0.043799936771392829 0.14305672794580462 -0.10213263332843779 1.5019726753234866 -0.59788602590560902 1.9140111804008486 0.038489330559968955 1.5310310125350954 -0.24720881134271619 0.54711294174194347 -0.69868609309196461 -0.18676958978176114 0.043799936771392829 2.0028660297393803 -0.95731440186500538 0.3369013667106629 0.75156125426292431 -0.38638818264007563 0.87458091974258434 1.6294173598289492 1.4626502990722658 1.3492470979690554 -1.8593163490295408 2.7763937711715703
decision_type=2 2 2 2 2 2 2 2 2 2 2 2 2 2 2 2 2 2 2 2 2 2 2 2 2 2 2 2 2 2
left_child=3 2 5 -1 29 6 15 25 -4 21 -8 16 13 -9 -15 -2 -12 -10 -11 -16 -13 -6 23 27 -25 -5 28 -23 -18 -3
right_child=1 4 8 7 9 -7 10 12 17 18 11 20 -14 14 19 -17 26 -19 -20 -21 -22 22 -24 24 -26 -27 -28 -29 -30 -31
leaf_value=0.06011010913210342 -0.035071636949681455 -0.046105889436932682 -0.038459156844739509 -0.014859922655947778 -0.033635872946288697 -0.038185472024089638 -0.016824254697672063 0.031909158823729036 0.059728835149926322 0.08448407230255546 -0.015332722061828048 0.07177321191255788 0.053452121482504195 -0.036748707024541853 0.094140728640064869 0.013527905471666069 -0.053915711094970765 -0.019500310356333719 -0.045943746114466388 -0.00081743180644565415 -0.049701070013779963 -0.032837263057400971 -0.045363634485249105 0.043612391826736485 -0.018264164337028835 0.095987097206659613 -0.015805731139960075 0.17674723936745398 0.069876640680609711 0.15114477703908824
leaf_weight=602.82730510085821 648.71337506920099 1456.3178879618645 56.477838799357414 459.69271931797266 788.80830273032188 484.42423410713673 176.09585549682379 762.00731520354748 669.20103924721479 63.389910496771336 66.900865569710732 22.653428874909878 378.24544457346201 253.41699539870024 47.054663971066475 197.86316243559122 14.864861212670801 52.259348779916763 23.302253842353821 82.300521172583103 72.297409906983376 173.51403193175793 177.88497158885002 217.78934606909752 87.931001134216785 19.227479614317417 37.374080188572407 5.260608308017253 392.21347215771675 5.5451459512114516
leaf_count=2971 7011 21395 555 3588 9083 5915 1548 3934 3517 353 578 107 1733 2493 268 1331 147 293 235 432 686 1885 1989 1172 703 86 289 42 2143 30
internal_value=-0.000517967 -0.0127708 0.00631724 0.0271937 -0.0311691 -0.00876036 -9.93468e-06 0.0172819 0.0472781 -0.0176818 0.0256372 0.0379698 0.0259896 0.0169157 -0.0129327 -0.0237129 0.0488676 0.0539898 0.049426 0.0337249 -0.0207197 -0.0216908 -0.00746567 0.00644878 0.0258155 -0.0104097 0.0585313 -0.02667 0.0653562 -0.0453577
internal_weight=8495.85 5891.08 2891.34 2604.77 2999.74 2113.4 1628.98 2001.95 777.938 1537.88 782.4 606.304 1523.02 1144.78 382.772 846.577 511.353 721.46 86.6922 129.355 94.9508 1451.19 662.38 484.495 305.72 478.92 444.452 178.775 407.078 1461.86
internal_count=76512 61007 24120 15505 36887 19755 13840 12534 4365 15462 5498 3950 8860 7127 3193 8342 3157 3810 588 700 793 14874 5791 3802 1875 3674 2579 1927 2290 21425
is_linear=0
shrinkage=0.05


Tree=26
num_leaves=31
num_cat=0
split_feature=8 3 0 4 8 6 8 3 7 3 4 7 5 7 8 6 0 9 0 3 0 7 4 9 7 4 3 8 6 3
split_gain=1072.57 943.275 476.804 329.265 302.555 176.895 172.827 275.506 255.278 226.359 228.424 241.595 143.499 135.09 128.519 371.541 169.329 130.621 119.784 119.473 97.4452 94.5126 124.904 80.6059 74.6113 71.0749 73.6918 65.881 60.9483 74.0783
threshold=0.61733070015907299 -0.76767992973327626 1.0959335565567019 -1.1738630533218382 -0.78598919510841359 -0.9224857985973357 0.080408245325088515 1.6853688955307009 0.23374644666910174 0.7364134192466737 -0.40836854279041285 -0.68807473778724659 -1.050739526748657 -0.39891821146011347 -0.6273529827594756 -0.99079144001007069 0.066756881773471846 -1.4100581407546995 -0.48177266120910639 1.2227912545204165 0.19472520053386691 1.4177054166793825 0.37363396584987646 -0.047006530687212937 1.0581317543983462 1.1816858649253847 -0.33732239902019495 -1.188680827617645 -0.051035610958933823 0.33497238159179693
decision_type=2 2 2 2 2 2 2 2 2 2 2 2 2 2 2 2 2 2 2 2 2 2 2 2 2 2 2 2 2 2
left_child=1 14 3 28 5 13 7 8 -6 10 11 -8 -4 27 -1 16 -16 -17 -13 21 -12 -7 -23 -18 -22 26 -10 -5 -3 -30
right_child=-2 2 12 4 6 19 9 -9 25 -11 20 18 -14 -15 15 17 23 -19 -20 -21 24 22 -24 -25 -26 -27 -28 -29 29 -31
leaf_value=0.05281289498304044 -0.043501346557083646 -0.018167156682782157 -0.045752780846825124 -0.0300104667687651 -0.043454342968833055 -0.0043597393471587528 -0.042849761423908339 0.098332637464545403 -0.011398107473928934 -0.042610478687024896 -0.030682447768762514 -0.0030867049552131673 0.042500753805554486 -0.029362083436230108 -0.017827059196009243 0.078199782937485918 0.060344159830872796 -0.031584239891170665 0.087534008784854844 0.06528862504199584 -0.0068928717302491537 0.062140382413039846 0.0058422797769840194 -0.01836170910015749 0.07837798163364107 -0.039731293618796508 0.040661759670489829 0.17678673006115866 0.049878918361014296 -0.024255808707086334
leaf_weight=818.67072294652462 1235.911835771054 48.396168515086174 49.78515200316906 5.6277720034122494 1490.9340308196843 487.55084197223186 61.999512333422899 39.893247723579407 129.31580153852701 287.5901490226388 273.71496742591262 45.983517725020647 615.59022179991007 374.3472303301096 89.757124647498131 30.130429156124592 564.84497278928757 268.87042819336057 176.17555211484432 112.04341299086809 68.259443171322346 163.30779655277729 248.34060611575842 34.518621906638145 41.09929221123457 72.508348532021046 143.30446042120457 12.201005741953848 307.263273447752 37.847329117357731
leaf_count=4183 16422 365 555 27 20323 2934 712 270 1008 3921 3431 371 3463 3556 744 139 3099 2381 991 513 702 733 1418 257 213 780 1018 78 1602 303
internal_value=-0.000514037 0.00696899 -0.00367891 -0.00936922 -0.0134351 0.00554711 -0.0228459 -0.0316599 -0.0344843 -0.00552885 0.0104541 0.0444215 0.0358974 -0.0229579 0.0381625 0.0260244 0.04622 -0.0205213 0.0687769 0.0166018 -0.0147425 0.0105353 0.0281767 0.0558113 0.0251537 0.00426567 0.0159675 0.11151 0.0343799 0.0417488
internal_weight=8335.78 7099.87 5293.08 4627.7 4234.2 1403.42 2830.78 1875.96 1836.06 954.822 667.232 284.159 665.375 392.176 1806.79 988.122 689.121 299.001 222.159 1011.24 383.074 899.199 411.648 599.364 109.359 345.129 272.62 17.8288 393.507 345.111
internal_count=76512 60090 49287 45269 42999 9259 33740 23399 23129 10341 6420 2074 4018 3661 10803 6620 4100 2520 1362 5598 4346 5085 2151 3356 915 2806 2026 105 2270 1905
is_linear=0
shrinkage=0.05


Tree=27
num_leaves=31
num_cat=0
split_feature=8 2 8 6 8 9 1 8 9 0 5 2 0 0 2 1 8 9 6 0 4 6 4 5 0 6 2 9 6 0
split_gain=1001.31 944.295 454.778 311.672 364.916 286.917 214.011 172.696 138.696 161.847 125.934 225.307 119.662 99.7963 126.327 87.253 78.2848 85.3374 67.5739 62.8687 101.383 60.9957 56.456 54.7303 56.6448 52.6046 52.0564 63.6069 133.557 93.2753
threshold=0.61733070015907299 0.57569274306297313 -0.74938073754310597 -0.73284679651260365 -0.55413627624511708 -0.759180188179016 1.8384674787521365 -0.23686407506465909 -1.0132607817649839 0.1078777462244034 -1.4948287606239317 -1.6605765819549558 -1.3350551724433897 0.0068301428109407434 0.3325782865285874 -0.60075753927230824 -0.17585015296936032 -0.18672446161508557 -1.2443503737449644 1.5955209732055666 -0.93559241294860829 0.59771457314491283 1.6476100087165835 -2.0662878751754756 -0.70794367790222157 -1.2704972624778745 0.67211186885833751 -0.02943677548319101 0.88809481263160717 -0.22600967437028882
decision_type=2 2 2 2 2 2 2 2 2 2 2 2 2 2 2 2 2 2 2 2 2 2 2 2 2 2 2 2 2 2
left_child=1 2 8 -3 15 7 13 23 -1 22 -11 -12 -9 -7 18 -5 -16 -18 -15 -14 -21 25 -10 -4 -25 -13 -2 28 29 -28
right_child=26 3 5 4 -6 6 -8 12 9 10 11 21 19 14 16 -17 17 -19 -20 20 -22 -23 -24 24 -26 -27 27 -29 -30 -31
leaf_value=0.053587395063800669 -0.048121099382822531 0.062593663446860057 0.16484207721661476 0.06550784173183187 -0.0038636758059609751 -0.039900387344997817 0.058287165908685393 -0.046435257956487619 -0.021585726069372594 0.060664547615126477 -0.04590889301768597 0.066006852702476124 0.039620398526494731 0.037972850051411378 -0.020628565659924533 0.028391237379321935 0.057504704273188934 -0.0061795038850698016 -0.032073930226721302 -0.054223778959648784 0.0588942159995543 0.064891217885977404 0.083629534604991382 0.075552194584321553 -0.033663458780449261 0.014693521131388866 0.17662308099773441 -0.046317058967089438 -0.050771594472207096 0.02417217331931245
leaf_weight=204.99759621173143 950.41677188873291 695.94491567462683 3.7270497456192961 346.82646429538727 691.64555926248431 1012.3809242285788 73.776632606983185 53.909782748669386 378.59610638022423 157.16103105247021 142.04336475580931 53.282033711671829 426.38308832794428 35.917087659239769 160.31823381781578 291.34658996760845 105.49398174509406 104.92219146341085 831.84807283803821 48.652168691158295 33.4105529114604 75.175801016390324 13.193795956671236 12.498867876827715 236.78307384997606 797.79412066936493 12.82543647661805 128.52365400642157 55.417046148329973 46.088449411094189
leaf_count=989 13485 3798 24 1797 5977 15170 459 517 3085 783 1662 254 2625 203 1518 1491 626 965 10190 418 165 361 61 97 2303 4552 98 1662 807 370
internal_value=-0.000511737 0.00671656 -0.00502703 0.0354834 0.0212956 -0.016558 -0.0255091 0.00896224 0.0148427 0.00993157 0.0188752 0.0127274 0.0243969 -0.0282557 -0.0187371 0.0485629 0.00569383 0.0257491 -0.0291747 0.0319071 -0.00816956 0.0217194 -0.0180425 -0.0253439 -0.0281874 0.017906 -0.0428421 -0.0221825 0.00494804 0.0573604
internal_weight=8181.3 6988.03 4962.27 2025.76 1329.82 3140.02 2324.66 815.365 1822.24 1617.25 1225.46 1068.3 562.356 2250.88 1238.5 638.173 370.734 210.416 867.765 508.446 82.0627 926.252 391.79 253.009 249.282 851.076 1193.27 242.855 114.331 58.9139
internal_count=76512 60090 47027 13063 9265 35280 29131 6149 11747 10758 7612 6829 3725 28672 13502 3288 3109 1591 10393 3208 583 5167 3146 2424 2400 4806 16422 2937 1275 468
is_linear=0
shrinkage=0.05


Tree=28
num_leaves=31
num_cat=0
split_feature=8 2 8 9 3 7 6 8 3 7 2 2 7 7 8 3 8 9 0 7 7 7 8 9 7 8 8 3 6 5
split_gain=936.349 866.152 404.616 297.091 269.603 283.048 254.948 325.798 179.898 133.634 120.087 118.401 112.884 175.805 107.175 88.7466 87.7872 108.501 107.842 94.6317 82.9491 75.0008 68.1086 57.107 76.9126 59.5026 56.9446 92.0995 70.9832 55.9122
threshold=0.61733070015907299 0.60062631964683544 -0.93242236971855152 -0.78557828068733204 1.8075441122055056 0.36391957104206091 -0.74250978231430043 -0.55413627624511708 -1.2452293634414671 -0.69330015778541554 0.38603690266609197 -1.6605765819549558 -0.39891821146011347 0.13457940518856051 0.031597126275300987 -0.35348410904407496 0.056002749130129821 -0.43978647887706751 -0.4369101077318191 -0.58066332340240467 -0.051986275240778916 -0.82233598828315724 0.007191632525064052 -1.1235739588737486 2.3052271604537968 -1.4449392557144163 0.043799936771392829 1.2652575969696047 1.5872298479080202 -0.08960798010230063
decision_type=2 2 2 2 2 2 2 2 2 2 2 2 2 2 2 2 2 2 2 2 2 2 2 2 2 2 2 2 2 2
left_child=1 2 8 12 5 16 -3 -8 -1 -9 -7 -10 21 14 -14 -11 -5 18 -18 -20 -21 -4 -6 -13 -25 -26 27 -17 -28 -12
right_child=-2 6 3 4 22 10 7 9 11 15 29 23 13 -15 -16 26 17 -19 19 20 -22 -23 -24 24 25 -27 28 -29 -30 -31
leaf_value=0.053799108646410645 -0.042245476952828515 0.062137584228984633 -0.021717658226426701 -0.040714931462447763 0.083772910870601194 -0.011900255565113715 0.049132667295860785 -0.039730673415380113 -0.034414759503428871 -0.027753669204412953 0.049486709147622675 0.057006934931782105 -0.042277696366099043 0.03437544410883183 0.015185429262449666 -0.020912704346382233 -0.0323407100042531 -0.033318367378163453 -0.034921888085659075 0.098169454146328217 -0.027978749544798832 0.048633341756838422 -0.038705416790043905 0.004120141073800117 0.059673494626590745 0.0063094934532889856 0.048567230743656008 0.14230194827303641 -0.041820979412626656 0.00048569924414175399
leaf_weight=285.82581976056099 1151.0439869053662 618.4723756313324 44.776528857648373 1391.9415460079908 74.415761835873127 504.43264351785183 590.30091305822134 175.83196516335011 135.54485665261745 106.59042324870825 151.80599382519722 76.066769182682037 231.73854030668736 223.85033731907606 124.86487531661987 94.195397190749645 73.387559108436108 341.33048467710614 27.052210334688425 65.292749173939228 16.280712559819221 246.14403153210878 13.393679846078156 721.96991957724094 129.0804500579834 87.747206598520279 201.43537481874228 9.5165147408843023 24.345791786909103 94.426229100674391
leaf_count=1422 16422 3487 387 19587 431 4865 3068 1971 1526 811 898 379 2427 1254 852 926 873 5165 281 446 143 1443 142 4039 589 455 1214 54 229 726
internal_value=-0.000504703 0.00647656 -0.00416221 -0.0130605 -0.0211123 -0.0239516 0.0360515 0.0226317 0.0182976 -0.00293319 0.00207198 0.00947709 0.0123851 -0.000355395 -0.022157 0.0119038 -0.0341512 -0.0166935 0.0144831 0.0461173 0.0729924 0.0378054 0.0650911 0.0153393 0.0119631 0.0380778 0.0247329 -0.00593627 0.0388207 0.0306956
internal_weight=8033.1 6882.06 5061.37 3625.13 2753.76 2665.95 1820.69 1202.22 1436.24 611.915 750.665 1150.41 871.374 580.454 356.603 436.084 1915.29 523.344 182.013 108.626 81.5735 290.921 87.8094 1014.86 938.798 216.828 329.493 103.712 225.781 246.232
internal_count=76512 60090 48330 39920 33557 32984 11760 8273 8410 5205 6489 6988 6363 4533 3279 3234 26495 6908 1743 870 589 1830 573 5462 5083 1044 2423 980 1443 1624
is_linear=0
shrinkage=0.05


Tree=29
num_leaves=31
num_cat=0
split_feature=8 2 8 6 8 3 3 8 7 2 3 0 6 7 4 1 6 3 3 3 8 3 3 7 2 1 0 7 0 2
split_gain=873.968 797.866 416.236 363.262 343.906 268.895 190.448 188.972 227.512 162.449 136.314 135.001 133.982 109.426 97.4005 88.5097 88.0311 73.6609 73.5295 73.3024 84.5737 154.399 107.061 68.7943 63.6681 61.8901 58.2592 56.3442 56.1886 53.4809
threshold=0.61733070015907299 0.52438715100288402 -0.71277242898941029 -0.75194624066352833 -0.61515018343925465 -1.2452293634414671 1.888069272041321 0.068205563351511969 0.249653235077858 -1.541032552719116 0.91279485821723949 -0.58563679456710804 0.1792738735675812 -0.73353588581085194 1.0186124444007876 -0.84752041101455677 -1.0215885043144224 0.56832802295684826 1.3919103145599367 1.2876878380775454 0.031597126275300987 -0.57364574074745167 0.5901363492012025 1.0000000180025095e-35 -0.15452954173088071 -0.86516693234443653 0.73179244995117199 1.0581317543983462 2.2957872152328496 0.66587847471237194
decision_type=2 2 2 2 2 2 2 2 2 2 2 2 2 2 2 2 2 2 2 2 2 2 2 2 2 2 2 2 2 2
left_child=1 2 5 -3 15 -1 7 8 -4 -7 11 -9 16 -6 -10 -5 -13 -17 -11 20 28 -22 23 25 -14 26 -23 -25 -15 -2
right_child=29 3 6 4 13 9 -8 10 14 18 -12 12 24 19 -16 17 -18 -19 -20 -21 21 22 -24 27 -26 -27 -28 -29 -30 -31
leaf_value=0.055613940074237062 -0.047282176772677327 0.058661782415368957 -0.040903508402774229 0.062700777918102329 -0.038154759383798309 -0.0376944526102099 0.061800000216926748 -0.027648136055368984 0.019867797817682581 0.0080461635535555767 -0.045565747124925553 0.04063522853896525 -0.055935449229184746 -0.026080111779575518 -0.03864635932396604 0.0031661252546238573 -0.011140235533823985 0.04742324126767742 0.068662787012178178 0.096390596790012925 -0.052744248869878822 0.046180252463146179 -0.021676642501589568 -0.048577475779871759 0.063897798524784777 0.086881140975385851 -0.06104277885057785 0.044726203244355153 0.098188595679887344 -0.020490305227608255
leaf_weight=303.21879590302706 875.34537293016911 749.74860091507435 1283.4114682935178 309.43264769017696 187.92366352677345 202.50059185922146 71.886320523917675 228.76955980807543 263.07284304872155 1201.6999511085451 159.55312284454703 111.65562961250544 11.932380400598047 237.35797336697578 97.46667343378067 177.36083240807056 310.11767588928342 200.07838926464319 52.201812788844109 21.20364923402667 69.438797123730183 99.184983797371387 81.261178620159626 32.027931459248066 155.94914424791932 96.810537070035934 14.523661732673643 32.701064504683018 9.4587807208299619 236.61511025205255
leaf_count=1525 13396 4290 18641 1692 2190 2373 467 2658 1840 7771 2482 703 148 2446 1046 915 3332 995 252 128 632 484 846 266 1087 595 89 157 40 3026
internal_value=-0.000498386 0.00624744 -0.00613584 0.0300334 0.0163513 0.0127774 -0.0184901 -0.0206915 -0.0310448 0.00385899 -0.00328788 0.00495425 0.0176031 -0.00430926 0.00404934 0.0428778 0.00256623 0.0266266 0.0105697 0.00485595 0.00197104 0.0154658 0.0287513 0.0436391 0.0553805 0.0574999 0.032485 -0.00144049 -0.0213178 -0.0415811
internal_weight=7883.91 6771.95 4453.44 2318.51 1568.76 1759.62 2693.81 2621.93 1643.95 1456.4 977.978 818.424 589.655 881.892 360.54 686.872 421.773 377.439 1253.9 693.969 672.765 425.948 356.509 275.248 167.882 210.519 113.709 64.729 246.817 1111.96
internal_count=76512 60090 44325 15765 11475 11921 32404 31937 21527 10396 10410 7928 5270 7873 2886 3602 4035 1910 8023 5683 5555 3069 2437 1591 1235 1168 573 423 2486 16422
is_linear=0
shrinkage=0.05


Tree=30
num_leaves=31
num_cat=0
split_feature=8 9 0 7 7 6 9 8 7 7 0 1 8 5 7 8 1 9 6 7 4 9 0 0 0 8 5 8 8 8
split_gain=804.431 576.686 546.394 209.985 191.907 200.602 219.336 155.015 236.896 139.973 154.925 135.004 128.535 121 112.369 107.879 180.901 95.6473 89.5171 85.5343 81.6215 79.359 71.602 71.5777 71.5775 64.7908 64.1172 51.6947 51.3937 49.472
threshold=0.61733070015907299 -0.80288404226303089 0.13851558417081836 1.2587106823921206 -0.42139826714992518 -0.1157550662755966 0.99553641676902782 -0.71277242898941029 0.14875926822423938 0.36391957104206091 0.1430567875504494 1.5240993499755862 -0.51752799749374379 -0.67229518294334401 -0.39891821146011347 1.0000000180025095e-35 -1.2725287079811094 -0.56946724653244007 1.6917448639869692 -0.72844919562339772 -1.1974573135375974 -0.10693495348095892 0.15025661885738376 -0.18371932953596112 0.12832200527191165 -0.59074455499649037 -0.69873934984207142 -0.8714085817337035 -0.40770295262336725 -1.3717225193977354
decision_type=2 2 2 2 2 2 2 2 2 2 2 2 2 2 2 2 2 2 2 2 2 2 2 2 2 2 2 2 2 2
left_child=1 7 3 11 12 6 9 -1 14 10 -6 17 19 -12 18 -16 -17 -3 -9 -4 -10 -11 25 -18 -22 26 -8 -19 -26 -21
right_child=-2 2 4 -5 5 -7 22 8 20 21 13 -13 -14 -15 15 16 23 27 -20 29 24 -23 -24 -25 28 -27 -28 -29 -30 -31
leaf_value=0.049268876637017928 -0.041004274579668848 -0.0069545309711253863 -0.022509969218212467 0.079360607573026154 0.054768977640103925 0.043184467297150551 -0.029076064964610876 0.032342186546323287 -0.017913029347471892 0.051788813390116886 -0.038526033596906512 0.064028620548414877 -0.032066129211871512 0.019320085342093302 -0.040898497378989956 -0.046358719257495504 -0.015062729380004879 -0.018026986243650702 -0.035746330573947514 -0.0029390677996920024 -0.031138730945330012 0.017797298624587243 0.05895053735171684 0.066155566089711029 -0.0079525435388191831 -0.048434536721293199 0.0047744766552211418 -0.042857524229823196 0.062957125580566348 0.059411543653693749
leaf_weight=621.09209799021482 1074.741154178977 312.70838322117925 95.966755758970976 45.477149173617363 103.04487217962742 510.01741303130984 242.4920894280076 327.60131309181452 44.215634569525719 364.60485374927521 217.70780564844608 37.648221842944622 414.08378857001662 154.59778771549463 207.35659078508615 90.013202339410782 36.925946585834026 263.48688037693501 56.614540752023458 47.837374433875084 23.685275621712208 324.56136252731085 32.625363558530807 102.23168560862541 27.371691629290581 131.74171132594347 330.61292909830809 1025.126097086817 384.54283004254103 94.97980098798871
leaf_count=3431 16386 3134 554 344 639 3296 2602 1990 262 2055 2311 261 5523 1083 2244 883 240 1943 661 219 185 1991 196 505 159 1504 2056 17125 2292 551
internal_value=-0.000859739 0.00560783 -0.00374335 -0.0266196 0.00882938 0.0153386 0.0078718 0.0287191 0.0189054 0.0213839 0.000511384 -0.0295603 -0.015219 -0.0145058 0.00258924 -0.0147676 0.00887588 -0.0317606 0.0223093 0.0139963 0.0468148 0.0357806 -0.0134646 0.044604 0.053385 -0.0168165 -0.00954836 -0.0377803 0.0582452 0.0385269
internal_weight=7745.71 6670.97 4749.32 1684.45 3064.87 2412.01 1901.99 1921.65 1300.56 1164.52 475.35 1638.97 652.868 372.306 820.743 436.527 229.171 1601.32 384.216 238.784 479.815 689.166 737.472 139.158 435.6 704.847 573.105 1288.61 411.915 142.817
internal_count=76625 60239 47387 22807 24580 17733 14437 12852 9421 8079 4033 22463 6847 3394 6523 3872 1628 22202 2651 1324 2898 4046 6358 745 2636 6162 4658 19068 2451 770
is_linear=0
shrinkage=0.05


Tree=31
num_leaves=31
num_cat=0
split_feature=8 3 0 8 8 3 3 7 9 0 5 9 5 8 6 0 9 7 7 8 6 7 9 5 1 7 8 7 1 8
split_gain=751.028 671.865 329.798 191.089 226.324 272.647 237.791 239.993 185.069 192.61 151.553 111.56 109.197 96.7475 253.206 137.315 86.2667 81.6497 71.4924 65.2864 63.0001 96.325 61.5702 55.8578 58.0541 50.3141 85.6132 48.8374 88.554 48.0118
threshold=0.64173617959022533 -0.74754312634468068 1.0959335565567019 -0.82259747385978688 0.080408245325088515 0.60180118680000316 1.3919103145599367 0.23374644666910174 -0.43978647887706751 -0.4369101077318191 0.46467351913452154 0.69027298688888561 -1.050739526748657 -0.6273529827594756 -1.0149120092391966 0.066756881773471846 -1.4100581407546995 0.83876347541809093 -0.64648315310478199 -0.041619485244154923 -0.93135848641395558 -0.39891821146011347 0.55115875601768505 -0.85194995999336232 1.2326403856277468 -0.37185321748256678 -0.40770295262336725 -0.074762959033250795 -0.84752041101455677 0.031597126275300987
decision_type=2 2 2 2 2 2 2 2 2 2 2 2 2 2 2 2 2 2 2 2 2 2 2 2 2 2 2 2 2 2
left_child=1 11 3 10 6 8 7 -5 9 -6 20 13 -4 -1 15 -15 -16 -18 -11 -8 21 -3 -12 -9 -25 26 -14 28 -20 -17
right_child=-2 2 12 4 5 -7 19 23 -10 18 22 -13 25 14 16 29 17 -19 27 -21 -22 -23 -24 24 -26 -27 -28 -29 -30 -31
leaf_value=0.050701055189864612 -0.041069293423918476 0.095520021931303822 -0.043472531235255914 -0.04016725250301232 -0.0052036239345989079 -0.037532630264270339 0.090789866183676057 -0.040644665502388988 -0.01294439799424086 -0.0049554195429459182 0.019015932604331837 -0.0103946272865977 0.04139632396638606 -0.015885968707217191 0.066752897339494285 0.018332182326008441 -0.039712353805108874 0.036077511364486468 0.054313590068981898 -0.029009877084347352 0.0052238781913403285 -0.027034124534861786 0.062435198920229668 0.025184139725808265 -0.030639965825039774 0.045878997742219089 -0.032094301720855464 0.017001337345150719 0.1182370855510278 0.05973672643836625
leaf_weight=674.80446761846542 1006.7674386836588 16.868171602487564 46.446587197482586 1378.1048175990582 176.0477511510253 318.75808064267039 52.868997275829315 54.365615997463465 310.23769296333194 36.891174107789993 230.0021686181426 138.08289531990886 103.53676724433899 84.103183444589376 28.387082442641258 83.571787044405937 190.15404135361314 43.703722380101681 147.1726805716753 14.489032875746487 703.42329752072692 323.94441946595907 126.5837379693985 242.03021232038736 57.669527404010296 401.04905672371387 64.20371300727129 38.420340780168772 85.743010953068733 431.61954694986343
leaf_count=3790 15924 92 591 21018 1502 4781 407 543 3883 329 1164 1097 543 721 137 486 1866 252 730 190 4005 3324 624 1737 652 2270 580 216 435 2736
internal_value=-0.000842108 0.00529112 -0.00400477 -0.00888928 -0.0161873 0.00153252 -0.0271496 -0.0307337 0.0172054 0.0365201 0.00628579 0.0326546 0.0302421 0.0365237 0.0254193 0.0433502 -0.0155573 -0.0255486 0.0603511 0.0650204 -0.00332464 -0.0209684 0.0344293 0.00598381 0.0144422 0.0362616 0.0132673 0.0692303 0.0778457 0.0530203
internal_weight=7610.05 6603.28 4928.86 4313.62 2912.8 1113.27 1799.53 1732.17 794.513 484.275 1400.82 1674.43 615.236 1536.34 861.539 599.295 262.245 233.858 308.227 67.358 1044.24 340.813 356.586 354.065 299.7 568.79 167.74 271.336 232.916 515.191
internal_count=76625 60701 49616 45632 36423 11876 24547 23950 7095 3212 9209 11085 3984 9988 6198 3943 2255 2118 1710 597 7421 3416 1788 2932 2389 3393 1123 1381 1165 3222
is_linear=0
shrinkage=0.05


Tree=32
num_leaves=31
num_cat=0
split_feature=8 3 0 4 7 4 1 0 8 9 6 8 9 7 9 9 8 4 0 6 9 6 8 7 0 7 8 7 0 0
split_gain=701.122 619.389 301.343 206.225 193.237 199.269 169.579 111.721 111.766 171.33 144.968 104.471 103.715 102.785 95.5335 95.1721 88.4923 244.148 132.102 82.8251 71.8064 64.0863 59.6358 129.448 57.7446 55.5891 54.1853 52.4503 78.1548 52.8759
threshold=0.64173617959022533 -0.74754312634468068 1.0959335565567019 -1.1738630533218382 2.3052271604537968 0.97202003002166759 1.6294173598289492 -0.091387398540973649 0.1048138663172722 -0.43978647887706751 1.4037148356437685 -0.66396132111549366 0.69027298688888561 0.17590020596981051 -0.56946724653244007 -0.88299763202667225 -0.6273529827594756 -1.0853043198585508 0.066756881773471846 1.4626502990722658 -1.4100581407546995 -0.96568444371223439 -0.6029473841190337 -0.10549019277095793 1.8265661597251894 -0.62839031219482411 0.1048138663172722 1.0581317543983462 0.15025661885738376 0.13851558417081836
decision_type=2 2 2 2 2 2 2 2 2 2 2 2 2 2 2 2 2 2 2 2 2 2 2 2 2 2 2 2 2 2
left_child=1 12 3 -3 6 -6 7 14 10 19 11 21 16 -13 -5 -15 -1 20 -19 25 -18 -9 -4 24 -24 -10 -20 -11 29 -29
right_child=-2 2 22 4 5 -7 -8 8 9 27 -12 13 -14 15 -16 -17 17 18 26 -21 -22 -23 23 -25 -26 -27 -28 28 -30 -31
leaf_value=0.049124068990890168 -0.040412662644411325 0.027837478560914328 0.05207621393006915 -0.0074603082459528576 0.053413833638408098 -0.021452873522445376 0.060944072532377803 -0.02514293282267336 -0.023375069897114076 -0.026329042285592158 0.092741197291960925 -0.040365714621024229 -0.0099127407608426577 0.067115256073540117 -0.03700928473984974 -0.016077829165202208 0.039553296986530595 -0.013922277509780893 0.021262239450568304 -0.041637541063948756 -0.033717269398716422 0.0046860771848263047 -0.031778081373947657 0.042696818505731038 0.030292090190132431 0.079752514166934518 0.05932496588790407 0.15185928688082287 0.088059466779598139 -0.054688216625514367
leaf_weight=661.97408939898014 972.83542342111468 355.97777403518558 191.93279818445444 385.00279291719198 215.99334520101547 151.02493520081043 71.057611364871264 262.69582341238856 14.641141913831232 176.29005993157625 30.446697182953358 620.25719266757369 137.56918797269464 41.132944226264954 944.75853393599391 209.32182012870908 40.984983421862125 93.591546043753624 121.55014702305198 19.449093010276556 181.59854146838188 572.447245310992 127.31994911283255 236.98605713248253 53.096345297992229 121.54818177968264 405.20721094310284 3.5343847423791912 28.165824629366398 25.127367183566093
leaf_count=3790 15924 2222 966 3771 1135 1206 426 2816 162 2404 222 9285 1097 215 15127 1848 207 950 773 225 1566 3488 1365 1372 281 633 2702 22 144 281
internal_value=-0.000824612 0.00509979 -0.00387416 -0.00858994 -0.011921 0.0226068 -0.0155151 -0.0170877 -0.0099751 0.0142583 -0.0154009 -0.0173311 0.0316434 -0.0294494 -0.028454 -0.00241478 0.0354422 0.0246976 0.0408163 0.0548818 -0.0202257 -0.00469669 0.0290088 0.0184018 -0.0135109 0.0686657 0.0505419 -0.0128636 0.028909 -0.0292181
internal_weight=7473.52 6500.68 4858.21 4248.87 3892.89 367.018 3525.88 3454.82 2125.06 388.756 1736.3 1705.86 1642.48 870.712 1329.76 250.455 1504.91 842.932 620.349 155.638 222.584 835.143 609.335 417.402 180.416 136.189 526.757 233.118 56.8276 28.6618
internal_count=76625 60701 49616 45632 43410 2341 41069 40643 21745 3871 17874 17652 11085 11348 18898 2063 9988 6198 4425 1020 1773 6304 3984 3018 1646 795 3475 2851 447 303
is_linear=0
shrinkage=0.05


Tree=33
num_leaves=31
num_cat=0
split_feature=2 8 3 8 9 7 4 4 8 3 7 9 3 3 7 9 8 2 8 3 7 8 2 9 7 6 4 8 4 8
